EXPLAIN
TAG	PWR800_POTENTIOSTATIC
TITLE	LABEL	PWRPOTSTAT_ps50_zn4_paa1_v08	Test &Identifier
DATE	LABEL	12.11.2018	Date
TIME	LABEL	14:12:43	Time
NOTES	NOTES	1	&Notes...
	
PSTAT	PSTAT	IFC5000-03531	Potentiostat
CAPACITY	QUANT	1,00000E+000	Capacity (A-hr)
CELLTYPE	SELECTOR	0	&Cell Type
WORKINGCONNECTION	SELECTOR	0	&Working Lead
MAXI	QUANT	5,00000E+000	Max Current (A)
VOLTAGE	QUANT	8,00000E-001	Voltage (V)
MAXTIME	VARIABLEANDUNITS	3,60000E+003	s	1,00000E+000	hour(s)	Max Time
SAMPLETIME	QUANT	1,00000E+000	Sa&mple Period (s)
STOPTHRESH	VARIABLEANDUNITS	5,00000E+000	s	5,00000E+000	second(s)	Stop At Threshold
STOPAT1	MULTIPARAM	2	5,00000E+000	Stop At &1	|Current| > Limit	A
STOPAT2	MULTIPARAM	0	0,00000E+000	Stop At &2	None	N/A
AESBHCSelector	TOGGLE	F	Save Both Half Cells
IRCOMP	TOGGLE	F	IR Measure
EOC	QUANT	0	Open Circuit (V)
SEQUENCER	TOGGLE	TRUE	Run as Sequence
PSTATMODEL	IQUANT	53	Pstat Model
PSTATSECTION	LABEL	IFC5000-03531	Pstat Section
PSTATSERIALNO	LABEL	03531	Pstat Serial Number
CTRLMODE	IQUANT	0	Control Mode
ELECTROMETER	IQUANT	0	RE=0 or CS=1
IESTAB	IQUANT	0	I/E Stability
CASPEED	IQUANT	4	Control Amp Speed
CONVENTION	IQUANT	1	Current Convention
ICHRANGE	IQUANT	2	Ich Range
ICHRANGEMODE	TOGGLE	T	Ich Auto Range
ICHOFFSETENABLE	TOGGLE	F	Ich Offset Enable
ICHOFFSET	QUANT	0	Ich Offset (V)
ICHFILTER	IQUANT	1	Ich Filter
VCHRANGE	IQUANT	2	Vch Range
VCHRANGEMODE	TOGGLE	T	Vch Auto Range
VCHOFFSETENABLE	TOGGLE	F	Vch Offset Enable
VCHOFFSET	QUANT	0	Vch Offset (V)
VCHFILTER	IQUANT	1	Vch Filter
IERANGELOWERLIMIT	IQUANT	9	I/E Range Lower Limit
IERANGEMODE	TOGGLE	F	I/E AutoRange
IERANGE	IQUANT	12	I/E Range
ACHSELECT	IQUANT	1	Ach Select
ACHRANGE	IQUANT	2	Ach Range
ACHOFFSETENABLE	TOGGLE	F	Ach Offset Enable
ACHOFFSET	QUANT	0	Ach Offset (V)
ACHFILTER	IQUANT	1	Ach Filter
SENSECABLEID	IQUANT	14	Sense Cable ID
PWRCABLEID	IQUANT	7	Power Cable ID
DCCALDATE	LABEL	5/31/2018	DC Calibration Date
ACCALDATE	LABEL	5/15/2017	AC Calibration Date
FRAMEWORKVERSION	QUANT	7,06	Framework Version
INSTRUMENTVERSION	LABEL	4.30	Instrument Version
CURVE	TABLE	111
	Pt	T	Vf	Im	Vu	Pwr	Sig	Ach	Temp	IERange	Over
	#	s	V	A	V	W	V	V	deg C	#	bits
	0	1	8,27243E-001	-1,24377E+000	0,00000E+000	-1,02890E+000	-7,45051E-001	9,15734E-002	1,32514E+003	12	..........a
	1	2	8,00963E-001	-1,40280E+000	0,00000E+000	-1,12359E+000	-8,40281E-001	1,04176E-001	1,32517E+003	12	...........
	2	3	7,98204E-001	-1,38295E+000	0,00000E+000	-1,10388E+000	-8,28362E-001	1,02668E-001	1,32550E+003	12	...........
	3	4	7,99433E-001	-1,44857E+000	0,00000E+000	-1,15804E+000	-8,67694E-001	1,07612E-001	1,32550E+003	12	...........
	4	5	8,00210E-001	-1,31382E+000	0,00000E+000	-1,05133E+000	-7,86952E-001	9,74116E-002	1,32550E+003	12	...........
	5	6	7,96888E-001	-1,25361E+000	0,00000E+000	-9,98983E-001	-7,50900E-001	9,28514E-002	1,32550E+003	12	...........
	6	7	8,01019E-001	-1,21456E+000	0,00000E+000	-9,72886E-001	-7,27507E-001	8,98847E-002	1,32550E+003	12	...........
	7	8	8,00164E-001	-1,22185E+000	0,00000E+000	-9,77684E-001	-7,31872E-001	9,04223E-002	1,32550E+003	12	...........
	8	9	7,98328E-001	-1,21834E+000	0,00000E+000	-9,72635E-001	-7,29765E-001	9,01518E-002	1,32550E+003	12	...........
	9	10	8,02312E-001	-1,17359E+000	0,00000E+000	-9,41585E-001	-7,02978E-001	8,67625E-002	1,32550E+003	12	...........
	10	11	7,97372E-001	-1,20777E+000	0,00000E+000	-9,63038E-001	-7,23439E-001	8,93262E-002	1,32550E+003	12	...........
	11	12	8,01362E-001	-1,16593E+000	0,00000E+000	-9,34336E-001	-6,98398E-001	8,61559E-002	1,32550E+003	12	...........
	12	13	7,99676E-001	-1,16308E+000	0,00000E+000	-9,30088E-001	-6,96683E-001	8,59367E-002	1,32550E+003	12	...........
	13	14	7,99448E-001	-1,11238E+000	0,00000E+000	-8,89292E-001	-6,66310E-001	8,21017E-002	1,32550E+003	12	...........
	14	15	8,00119E-001	-1,14116E+000	0,00000E+000	-9,13061E-001	-6,83552E-001	8,42576E-002	1,32548E+003	12	...........
	15	16	7,99276E-001	-1,15656E+000	0,00000E+000	-9,24414E-001	-6,92787E-001	8,54094E-002	1,32543E+003	12	...........
	16	17	8,00389E-001	-1,12496E+000	0,00000E+000	-9,00404E-001	-6,73839E-001	8,30252E-002	1,32550E+003	12	...........
	17	18	7,99595E-001	-1,12963E+000	0,00000E+000	-9,03247E-001	-6,76647E-001	8,33629E-002	1,32550E+003	12	...........
	18	19	8,01378E-001	-1,15730E+000	0,00000E+000	-9,27431E-001	-6,93227E-001	8,54400E-002	1,32550E+003	12	...........
	19	20	7,98042E-001	-1,09840E+000	0,00000E+000	-8,76569E-001	-6,57969E-001	8,09995E-002	1,32550E+003	12	...........
	20	21	7,99190E-001	-1,09081E+000	0,00000E+000	-8,71761E-001	-6,53413E-001	8,04142E-002	1,32550E+003	12	...........
	21	22	7,99613E-001	-1,04009E+000	0,00000E+000	-8,31671E-001	-6,23030E-001	7,65872E-002	1,32550E+003	12	...........
	22	23	7,99775E-001	-1,03132E+000	0,00000E+000	-8,24825E-001	-6,17794E-001	7,59264E-002	1,32550E+003	12	...........
	23	24	8,01703E-001	-9,99450E-001	0,00000E+000	-8,01262E-001	-5,98717E-001	7,35114E-002	1,32550E+003	12	...........
	24	25	7,99280E-001	-1,13357E+000	0,00000E+000	-9,06042E-001	-6,79006E-001	8,36110E-002	1,32550E+003	12	...........
	25	26	7,99767E-001	-1,11448E+000	0,00000E+000	-8,91326E-001	-6,67578E-001	8,21706E-002	1,32550E+003	12	...........
	26	27	8,02902E-001	-1,11262E+000	0,00000E+000	-8,93323E-001	-6,66471E-001	8,20232E-002	1,32550E+003	12	...........
	27	28	7,99463E-001	-1,14635E+000	0,00000E+000	-9,16465E-001	-6,86669E-001	8,45636E-002	1,32550E+003	12	...........
	28	29	7,99620E-001	-1,13162E+000	0,00000E+000	-9,04866E-001	-6,77834E-001	8,34400E-002	1,32550E+003	12	...........
	29	30	7,96932E-001	-1,04556E+000	0,00000E+000	-8,33237E-001	-6,26299E-001	7,69515E-002	1,32550E+003	12	...........
	30	31	8,00814E-001	-1,02394E+000	0,00000E+000	-8,19987E-001	-6,13379E-001	7,53260E-002	1,32550E+003	12	...........
	31	32	8,01211E-001	-1,10353E+000	0,00000E+000	-8,84162E-001	-6,61025E-001	8,13132E-002	1,32550E+003	12	...........
	32	33	7,99373E-001	-1,10348E+000	0,00000E+000	-8,82092E-001	-6,60986E-001	8,13060E-002	1,32550E+003	12	...........
	33	34	8,01224E-001	-1,04080E+000	0,00000E+000	-8,33912E-001	-6,23461E-001	7,65819E-002	1,32550E+003	12	...........
	34	35	7,99660E-001	-1,13569E+000	0,00000E+000	-9,08167E-001	-6,80270E-001	8,37200E-002	1,32550E+003	12	...........
	35	36	7,99987E-001	-1,12572E+000	0,00000E+000	-9,00563E-001	-6,74293E-001	8,29706E-002	1,32550E+003	12	...........
	36	37	7,98966E-001	-1,12706E+000	0,00000E+000	-9,00482E-001	-6,75105E-001	8,30709E-002	1,32550E+003	12	...........
	37	38	8,01880E-001	-1,15169E+000	0,00000E+000	-9,23514E-001	-6,89859E-001	8,49200E-002	1,32550E+003	12	...........
	38	39	7,99215E-001	-1,16137E+000	0,00000E+000	-9,28182E-001	-6,95643E-001	8,56482E-002	1,32550E+003	12	...........
	39	40	7,99160E-001	-1,01496E+000	0,00000E+000	-8,11118E-001	-6,08011E-001	7,46274E-002	1,32550E+003	12	...........
	40	41	7,98785E-001	-1,05622E+000	0,00000E+000	-8,43691E-001	-6,32698E-001	7,77212E-002	1,32550E+003	12	...........
	41	42	8,01507E-001	-1,04255E+000	0,00000E+000	-8,35608E-001	-6,24525E-001	7,66828E-002	1,32550E+003	12	...........
	42	43	8,00742E-001	-1,07516E+000	0,00000E+000	-8,60923E-001	-6,44039E-001	7,91358E-002	1,32550E+003	12	...........
	43	44	7,99202E-001	-1,06448E+000	0,00000E+000	-8,50737E-001	-6,37648E-001	7,83342E-002	1,32550E+003	12	...........
	44	45	7,99576E-001	-1,03280E+000	0,00000E+000	-8,25803E-001	-6,18678E-001	7,59440E-002	1,32550E+003	12	...........
	45	46	8,00482E-001	-1,05254E+000	0,00000E+000	-8,42535E-001	-6,30511E-001	7,74268E-002	1,32550E+003	12	...........
	46	47	8,00054E-001	-1,04812E+000	0,00000E+000	-8,38549E-001	-6,27850E-001	7,70924E-002	1,32550E+003	12	...........
	47	48	7,99123E-001	-1,03932E+000	0,00000E+000	-8,30541E-001	-6,22581E-001	7,64196E-002	1,32550E+003	12	...........
	48	49	8,01102E-001	-1,04352E+000	0,00000E+000	-8,35965E-001	-6,25087E-001	7,67371E-002	1,32550E+003	12	...........
	49	50	8,02258E-001	-1,10541E+000	0,00000E+000	-8,86826E-001	-6,62156E-001	8,13872E-002	1,32550E+003	12	...........
	50	51	7,98422E-001	-1,13697E+000	0,00000E+000	-9,07782E-001	-6,81043E-001	8,37693E-002	1,32551E+003	12	...........
	51	52	7,99739E-001	-1,13280E+000	0,00000E+000	-9,05944E-001	-6,78546E-001	8,34551E-002	1,32556E+003	12	...........
	52	53	8,01601E-001	-1,13760E+000	0,00000E+000	-9,11900E-001	-6,81419E-001	8,38068E-002	1,32550E+003	12	...........
	53	54	7,99849E-001	-1,19981E+000	0,00000E+000	-9,59668E-001	-7,18657E-001	8,84884E-002	1,32550E+003	12	...........
	54	55	8,00248E-001	-1,18755E+000	0,00000E+000	-9,50333E-001	-7,11340E-001	8,75621E-002	1,32550E+003	12	...........
	55	56	8,00566E-001	-1,18994E+000	0,00000E+000	-9,52621E-001	-7,12763E-001	8,77417E-002	1,32550E+003	12	...........
	56	57	7,99499E-001	-1,18738E+000	0,00000E+000	-9,49311E-001	-7,11230E-001	8,75545E-002	1,32550E+003	12	...........
	57	58	8,00274E-001	-1,20876E+000	0,00000E+000	-9,67340E-001	-7,24038E-001	8,91566E-002	1,32550E+003	12	...........
	58	59	7,99029E-001	-1,24796E+000	0,00000E+000	-9,97157E-001	-7,47524E-001	9,21100E-002	1,32550E+003	12	...........
	59	60	8,00483E-001	-1,23025E+000	0,00000E+000	-9,84795E-001	-7,36906E-001	9,07727E-002	1,32551E+003	12	...........
	60	61	8,00675E-001	-1,19936E+000	0,00000E+000	-9,60298E-001	-7,18396E-001	8,84464E-002	1,32556E+003	12	...........
	61	62	7,99380E-001	-1,23931E+000	0,00000E+000	-9,90678E-001	-7,42321E-001	9,14516E-002	1,32551E+003	12	...........
	62	63	8,00800E-001	-1,23887E+000	0,00000E+000	-9,92088E-001	-7,42048E-001	9,14128E-002	1,32556E+003	12	...........
	63	64	8,00399E-001	-1,30187E+000	0,00000E+000	-1,04202E+000	-7,79793E-001	9,61599E-002	1,32550E+003	12	...........
	64	65	7,99402E-001	-1,26429E+000	0,00000E+000	-1,01068E+000	-7,57290E-001	9,33281E-002	1,32550E+003	12	...........
	65	66	7,99219E-001	-1,22861E+000	0,00000E+000	-9,81931E-001	-7,35907E-001	9,06396E-002	1,32551E+003	12	...........
	66	67	8,00707E-001	-1,24906E+000	0,00000E+000	-1,00013E+000	-7,48178E-001	9,21798E-002	1,32556E+003	12	...........
	67	68	8,00329E-001	-1,27353E+000	0,00000E+000	-1,01924E+000	-7,62831E-001	9,40166E-002	1,32551E+003	12	...........
	68	69	7,99969E-001	-1,30939E+000	0,00000E+000	-1,04747E+000	-7,84292E-001	9,67253E-002	1,32556E+003	12	...........
	69	70	8,01243E-001	-1,32909E+000	0,00000E+000	-1,06492E+000	-7,96091E-001	9,82054E-002	1,32550E+003	12	...........
	70	71	7,98481E-001	-1,28273E+000	0,00000E+000	-1,02424E+000	-7,68332E-001	9,47083E-002	1,32550E+003	12	...........
	71	72	8,00779E-001	-1,23655E+000	0,00000E+000	-9,90202E-001	-7,40674E-001	9,12350E-002	1,32550E+003	12	...........
	72	73	7,99525E-001	-1,31563E+000	0,00000E+000	-1,05188E+000	-7,88045E-001	9,71903E-002	1,32551E+003	12	...........
	73	74	7,99193E-001	-1,24995E+000	0,00000E+000	-9,98952E-001	-7,48704E-001	9,22449E-002	1,32556E+003	12	...........
	74	75	8,01692E-001	-1,27780E+000	0,00000E+000	-1,02441E+000	-7,65371E-001	9,43407E-002	1,32550E+003	12	...........
	75	76	7,99273E-001	-1,30775E+000	0,00000E+000	-1,04525E+000	-7,83314E-001	9,65909E-002	1,32551E+003	12	...........
	76	77	7,99924E-001	-1,23180E+000	0,00000E+000	-9,85346E-001	-7,37827E-001	9,08751E-002	1,32556E+003	12	...........
	77	78	8,01037E-001	-1,28845E+000	0,00000E+000	-1,03210E+000	-7,71756E-001	9,51357E-002	1,32551E+003	12	...........
	78	79	8,00380E-001	-1,34134E+000	0,00000E+000	-1,07358E+000	-8,03442E-001	9,91153E-002	1,32558E+003	12	...........
	79	80	7,97846E-001	-1,26441E+000	0,00000E+000	-1,00880E+000	-7,57349E-001	9,33300E-002	1,32556E+003	12	...........
	80	81	8,00576E-001	-1,21887E+000	0,00000E+000	-9,75794E-001	-7,30067E-001	8,98978E-002	1,32550E+003	12	...........
	81	82	7,98984E-001	-1,19018E+000	0,00000E+000	-9,50938E-001	-7,12896E-001	8,77361E-002	1,32551E+003	12	...........
	82	83	8,00703E-001	-1,19512E+000	0,00000E+000	-9,56935E-001	-7,15856E-001	8,81055E-002	1,32556E+003	12	...........
	83	84	7,98473E-001	-1,20104E+000	0,00000E+000	-9,58998E-001	-7,19400E-001	8,85441E-002	1,32551E+003	12	...........
	84	85	8,01416E-001	-1,21163E+000	0,00000E+000	-9,71021E-001	-7,25740E-001	8,93379E-002	1,32556E+003	12	...........
	85	86	8,00498E-001	-1,27070E+000	0,00000E+000	-1,01719E+000	-7,61106E-001	9,37861E-002	1,32551E+003	12	...........
	86	87	7,98910E-001	-1,26880E+000	0,00000E+000	-1,01366E+000	-7,59985E-001	9,36442E-002	1,32558E+003	12	...........
	87	88	8,00626E-001	-1,25677E+000	0,00000E+000	-1,00620E+000	-7,52786E-001	9,27350E-002	1,32556E+003	12	...........
	88	89	7,98313E-001	-1,16055E+000	0,00000E+000	-9,26481E-001	-6,95154E-001	8,54922E-002	1,32550E+003	12	...........
	89	90	7,99656E-001	-1,11624E+000	0,00000E+000	-8,92607E-001	-6,68619E-001	8,21577E-002	1,32551E+003	12	...........
	90	91	8,02045E-001	-1,19560E+000	0,00000E+000	-9,58921E-001	-7,16135E-001	8,81227E-002	1,32558E+003	12	...........
	91	92	7,99097E-001	-1,20838E+000	0,00000E+000	-9,65616E-001	-7,23802E-001	8,90908E-002	1,32556E+003	12	...........
	92	93	7,99434E-001	-1,15372E+000	0,00000E+000	-9,22319E-001	-6,91068E-001	8,49766E-002	1,32551E+003	12	...........
	93	94	8,01114E-001	-1,19068E+000	0,00000E+000	-9,53870E-001	-7,13201E-001	8,77554E-002	1,32558E+003	12	...........
	94	95	8,00022E-001	-1,20097E+000	0,00000E+000	-9,60800E-001	-7,19362E-001	8,85328E-002	1,32558E+003	12	...........
	95	96	8,00089E-001	-1,15702E+000	0,00000E+000	-9,25719E-001	-6,93056E-001	8,52233E-002	1,32558E+003	12	...........
	96	97	7,97017E-001	-1,10739E+000	0,00000E+000	-8,82607E-001	-6,63333E-001	8,14924E-002	1,32558E+003	12	...........
	97	98	8,01122E-001	-1,09801E+000	0,00000E+000	-8,79642E-001	-6,57715E-001	8,07843E-002	1,32558E+003	12	...........
	98	99	7,99774E-001	-1,11624E+000	0,00000E+000	-8,92736E-001	-6,68634E-001	8,21533E-002	1,32556E+003	12	...........
	99	100	7,99595E-001	-1,06545E+000	0,00000E+000	-8,51929E-001	-6,38217E-001	7,83310E-002	1,32551E+003	12	...........
	100	101	8,01975E-001	-1,10206E+000	0,00000E+000	-8,83823E-001	-6,60137E-001	8,10831E-002	1,32558E+003	12	...........
	101	102	7,99086E-001	-1,10734E+000	0,00000E+000	-8,84857E-001	-6,63293E-001	8,14753E-002	1,32556E+003	12	...........
	102	103	7,98209E-001	-1,10752E+000	0,00000E+000	-8,84035E-001	-6,63409E-001	8,14851E-002	1,32551E+003	12	...........
	103	104	7,99893E-001	-1,01677E+000	0,00000E+000	-8,13308E-001	-6,09076E-001	7,46700E-002	1,32558E+003	12	...........
	104	105	7,99642E-001	-1,04805E+000	0,00000E+000	-8,38063E-001	-6,27783E-001	7,70131E-002	1,32558E+003	12	...........
	105	106	8,00064E-001	-1,01475E+000	0,00000E+000	-8,11864E-001	-6,07870E-001	7,45081E-002	1,32556E+003	12	...........
	106	107	7,98760E-001	-9,57893E-001	0,00000E+000	-7,65126E-001	-5,73820E-001	7,02360E-002	1,32551E+003	12	...........
	107	108	8,00877E-001	-9,81939E-001	0,00000E+000	-7,86412E-001	-5,88252E-001	7,20337E-002	1,32558E+003	12	...........
	108	109	7,99025E-001	-1,03824E+000	0,00000E+000	-8,29577E-001	-6,21920E-001	7,62651E-002	1,32558E+003	12	...........
	109	110	8,01631E-001	-9,83771E-001	0,00000E+000	-7,88621E-001	-5,89333E-001	7,21681E-002	1,32558E+003	12	...........
	110	111	7,99409E-001	-1,04557E+000	0,00000E+000	-8,35836E-001	-6,26316E-001	7,68064E-002	1,32558E+003	12	...........
