EXPLAIN
TAG	PWR800_POTENTIOSTATIC
TITLE	LABEL	PWRPOTSTAT_ps200_zn12_paa1_v08	Test &Identifier
DATE	LABEL	12.11.2018	Date
TIME	LABEL	19:20:43	Time
NOTES	NOTES	1	&Notes...
	
PSTAT	PSTAT	IFC5000-03531	Potentiostat
CAPACITY	QUANT	1,00000E+000	Capacity (A-hr)
CELLTYPE	SELECTOR	0	&Cell Type
WORKINGCONNECTION	SELECTOR	0	&Working Lead
MAXI	QUANT	5,00000E+000	Max Current (A)
VOLTAGE	QUANT	8,00000E-001	Voltage (V)
MAXTIME	VARIABLEANDUNITS	3,60000E+003	s	1,00000E+000	hour(s)	Max Time
SAMPLETIME	QUANT	1,00000E+000	Sa&mple Period (s)
STOPTHRESH	VARIABLEANDUNITS	5,00000E+000	s	5,00000E+000	second(s)	Stop At Threshold
STOPAT1	MULTIPARAM	2	5,00000E+000	Stop At &1	|Current| > Limit	A
STOPAT2	MULTIPARAM	0	0,00000E+000	Stop At &2	None	N/A
AESBHCSelector	TOGGLE	F	Save Both Half Cells
IRCOMP	TOGGLE	F	IR Measure
EOC	QUANT	0	Open Circuit (V)
SEQUENCER	TOGGLE	TRUE	Run as Sequence
PSTATMODEL	IQUANT	53	Pstat Model
PSTATSECTION	LABEL	IFC5000-03531	Pstat Section
PSTATSERIALNO	LABEL	03531	Pstat Serial Number
CTRLMODE	IQUANT	0	Control Mode
ELECTROMETER	IQUANT	0	RE=0 or CS=1
IESTAB	IQUANT	0	I/E Stability
CASPEED	IQUANT	4	Control Amp Speed
CONVENTION	IQUANT	1	Current Convention
ICHRANGE	IQUANT	2	Ich Range
ICHRANGEMODE	TOGGLE	T	Ich Auto Range
ICHOFFSETENABLE	TOGGLE	F	Ich Offset Enable
ICHOFFSET	QUANT	0	Ich Offset (V)
ICHFILTER	IQUANT	1	Ich Filter
VCHRANGE	IQUANT	2	Vch Range
VCHRANGEMODE	TOGGLE	T	Vch Auto Range
VCHOFFSETENABLE	TOGGLE	F	Vch Offset Enable
VCHOFFSET	QUANT	0	Vch Offset (V)
VCHFILTER	IQUANT	1	Vch Filter
IERANGELOWERLIMIT	IQUANT	9	I/E Range Lower Limit
IERANGEMODE	TOGGLE	F	I/E AutoRange
IERANGE	IQUANT	12	I/E Range
ACHSELECT	IQUANT	1	Ach Select
ACHRANGE	IQUANT	2	Ach Range
ACHOFFSETENABLE	TOGGLE	F	Ach Offset Enable
ACHOFFSET	QUANT	0	Ach Offset (V)
ACHFILTER	IQUANT	1	Ach Filter
SENSECABLEID	IQUANT	14	Sense Cable ID
PWRCABLEID	IQUANT	7	Power Cable ID
DCCALDATE	LABEL	5/31/2018	DC Calibration Date
ACCALDATE	LABEL	5/15/2017	AC Calibration Date
FRAMEWORKVERSION	QUANT	7,06	Framework Version
INSTRUMENTVERSION	LABEL	4.30	Instrument Version
CURVE	TABLE	102
	Pt	T	Vf	Im	Vu	Pwr	Sig	Ach	Temp	IERange	Over
	#	s	V	A	V	W	V	V	deg C	#	bits
	0	1	8,33208E-001	-6,84811E-001	0,00000E+000	-5,70590E-001	-4,10354E-001	5,12687E-002	1,32668E+003	12	..........a
	1	2	7,99989E-001	-5,86257E-001	0,00000E+000	-4,68999E-001	-3,51350E-001	4,36981E-002	1,32562E+003	12	..........a
	2	3	7,97253E-001	-5,39607E-001	0,00000E+000	-4,30203E-001	-3,23413E-001	4,02641E-002	1,32461E+003	12	..........a
	3	4	7,99754E-001	-5,04691E-001	0,00000E+000	-4,03629E-001	-3,02501E-001	3,72930E-002	1,32424E+003	12	..........a
	4	5	7,98446E-001	-4,87040E-001	0,00000E+000	-3,88876E-001	-2,91947E-001	3,48323E-002	1,32486E+003	12	..........a
	5	6	8,00633E-001	-4,89959E-001	0,00000E+000	-3,92277E-001	-2,93689E-001	3,42132E-002	1,32572E+003	12	..........a
	6	7	7,98551E-001	-4,84953E-001	0,00000E+000	-3,87260E-001	-2,90686E-001	3,45248E-002	1,32570E+003	12	..........a
	7	8	8,00501E-001	-4,70987E-001	0,00000E+000	-3,77026E-001	-2,82321E-001	3,25828E-002	1,32572E+003	12	..........a
	8	9	8,01935E-001	-4,75153E-001	0,00000E+000	-3,81042E-001	-2,84826E-001	3,28678E-002	1,32499E+003	12	..........a
	9	10	7,97968E-001	-4,97086E-001	0,00000E+000	-3,96658E-001	-2,97959E-001	3,48753E-002	1,32495E+003	12	..........a
	10	11	7,98693E-001	-4,52662E-001	0,00000E+000	-3,61538E-001	-2,71356E-001	3,14268E-002	1,32575E+003	12	..........a
	11	12	7,98921E-001	-4,39321E-001	0,00000E+000	-3,50982E-001	-2,63386E-001	3,18900E-002	1,32575E+003	12	..........a
	12	13	8,01697E-001	-4,52963E-001	0,00000E+000	-3,63139E-001	-2,71537E-001	3,21750E-002	1,32578E+003	12	..........a
	13	14	8,00526E-001	-4,59331E-001	0,00000E+000	-3,67706E-001	-2,75344E-001	3,17326E-002	1,32579E+003	12	..........a
	14	15	8,05363E-001	-4,59911E-001	0,00000E+000	-3,70395E-001	-2,75697E-001	3,22126E-002	1,32578E+003	12	..........a
	15	16	7,93529E-001	-4,62985E-001	0,00000E+000	-3,67392E-001	-2,77528E-001	3,21042E-002	1,32583E+003	12	..........a
	16	17	8,01731E-001	-4,52798E-001	0,00000E+000	-3,63022E-001	-2,71441E-001	3,11692E-002	1,32579E+003	12	..........a
	17	18	7,97912E-001	-4,67820E-001	0,00000E+000	-3,73279E-001	-2,80416E-001	3,36711E-002	1,32575E+003	12	..........a
	18	19	8,00325E-001	-4,64483E-001	0,00000E+000	-3,71737E-001	-2,78425E-001	3,23797E-002	1,32575E+003	12	..........a
	19	20	8,00921E-001	-4,63959E-001	0,00000E+000	-3,71595E-001	-2,78115E-001	3,18755E-002	1,32510E+003	12	..........a
	20	21	7,99407E-001	-4,78025E-001	0,00000E+000	-3,82136E-001	-2,86541E-001	3,36847E-002	1,32504E+003	12	..........a
	21	22	8,00996E-001	-4,65654E-001	0,00000E+000	-3,72987E-001	-2,79132E-001	3,23482E-002	1,32575E+003	12	..........a
	22	23	7,99709E-001	-4,70792E-001	0,00000E+000	-3,76497E-001	-2,82218E-001	3,45384E-002	1,32575E+003	12	..........a
	23	24	7,98026E-001	-4,60256E-001	0,00000E+000	-3,67296E-001	-2,75901E-001	3,21486E-002	1,32575E+003	12	..........a
	24	25	8,02062E-001	-4,77127E-001	0,00000E+000	-3,82685E-001	-2,85999E-001	3,32705E-002	1,32575E+003	12	..........a
	25	26	7,99771E-001	-4,69653E-001	0,00000E+000	-3,75615E-001	-2,81518E-001	3,33129E-002	1,32575E+003	12	..........a
	26	27	7,98970E-001	-4,80401E-001	0,00000E+000	-3,83825E-001	-2,87968E-001	3,40900E-002	1,32575E+003	12	..........a
	27	28	8,01476E-001	-4,82994E-001	0,00000E+000	-3,87108E-001	-2,89516E-001	3,45663E-002	1,32539E+003	12	..........a
	28	29	7,99898E-001	-4,75040E-001	0,00000E+000	-3,79983E-001	-2,84742E-001	3,28715E-002	1,32539E+003	12	..........a
	29	30	8,00297E-001	-4,68942E-001	0,00000E+000	-3,75293E-001	-2,81096E-001	3,26294E-002	1,32579E+003	12	..........a
	30	31	7,99051E-001	-4,49266E-001	0,00000E+000	-3,58986E-001	-2,69323E-001	3,21576E-002	1,32575E+003	12	..........a
	31	32	7,98868E-001	-4,51225E-001	0,00000E+000	-3,60469E-001	-2,70478E-001	3,24331E-002	1,32575E+003	12	..........a
	32	33	8,01448E-001	-4,61073E-001	0,00000E+000	-3,69526E-001	-2,76391E-001	3,23412E-002	1,32575E+003	12	..........a
	33	34	7,98125E-001	-4,51441E-001	0,00000E+000	-3,60306E-001	-2,70629E-001	3,18498E-002	1,32578E+003	12	..........a
	34	35	8,02593E-001	-4,70704E-001	0,00000E+000	-3,77784E-001	-2,82159E-001	3,29764E-002	1,32579E+003	12	..........a
	35	36	7,99447E-001	-4,58909E-001	0,00000E+000	-3,66873E-001	-2,75095E-001	3,35657E-002	1,32575E+003	12	..........a
	36	37	8,01982E-001	-4,59325E-001	0,00000E+000	-3,68371E-001	-2,75343E-001	3,25381E-002	1,32575E+003	12	..........a
	37	38	7,97994E-001	-4,68424E-001	0,00000E+000	-3,73799E-001	-2,80786E-001	3,24484E-002	1,32572E+003	12	..........a
	38	39	7,97562E-001	-4,61576E-001	0,00000E+000	-3,68136E-001	-2,76690E-001	3,23412E-002	1,32570E+003	12	..........a
	39	40	8,00175E-001	-4,51627E-001	0,00000E+000	-3,61381E-001	-2,70730E-001	3,10765E-002	1,32510E+003	12	..........a
	40	41	8,02628E-001	-4,42560E-001	0,00000E+000	-3,55211E-001	-2,65298E-001	3,15610E-002	1,32504E+003	12	..........a
	41	42	7,99998E-001	-4,63470E-001	0,00000E+000	-3,70775E-001	-2,77828E-001	3,19963E-002	1,32575E+003	12	..........a
	42	43	8,00005E-001	-4,61338E-001	0,00000E+000	-3,69072E-001	-2,76544E-001	3,18446E-002	1,32578E+003	12	..........a
	43	44	7,98273E-001	-4,53235E-001	0,00000E+000	-3,61805E-001	-2,71699E-001	3,14993E-002	1,32579E+003	12	..........a
	44	45	8,00040E-001	-4,55562E-001	0,00000E+000	-3,64468E-001	-2,73094E-001	3,13777E-002	1,32563E+003	12	..........a
	45	46	8,00206E-001	-4,57207E-001	0,00000E+000	-3,65859E-001	-2,74071E-001	3,16281E-002	1,32562E+003	12	..........a
	46	47	8,00060E-001	-4,60592E-001	0,00000E+000	-3,68501E-001	-2,76090E-001	3,22647E-002	1,32563E+003	12	..........a
	47	48	7,99698E-001	-4,65537E-001	0,00000E+000	-3,72289E-001	-2,79060E-001	3,22393E-002	1,32565E+003	12	..........a
	48	49	8,01962E-001	-4,48059E-001	0,00000E+000	-3,59326E-001	-2,68617E-001	3,23282E-002	1,32583E+003	12	..........a
	49	50	7,99957E-001	-4,59849E-001	0,00000E+000	-3,67859E-001	-2,75658E-001	3,20105E-002	1,32579E+003	12	..........a
	50	51	7,98018E-001	-4,49484E-001	0,00000E+000	-3,58696E-001	-2,69448E-001	3,11084E-002	1,32575E+003	12	..........a
	51	52	8,02012E-001	-4,57071E-001	0,00000E+000	-3,66576E-001	-2,73987E-001	3,16491E-002	1,32575E+003	12	..........a
	52	53	7,98047E-001	-4,49602E-001	0,00000E+000	-3,58804E-001	-2,69520E-001	3,13368E-002	1,32575E+003	12	..........a
	53	54	7,99289E-001	-4,39975E-001	0,00000E+000	-3,51667E-001	-2,63756E-001	3,02195E-002	1,32578E+003	12	..........a
	54	55	8,01979E-001	-4,42336E-001	0,00000E+000	-3,54744E-001	-2,65160E-001	3,03618E-002	1,32579E+003	12	..........a
	55	56	7,99282E-001	-4,40893E-001	0,00000E+000	-3,52398E-001	-2,64319E-001	3,08806E-002	1,32575E+003	12	..........a
	56	57	8,01186E-001	-4,52856E-001	0,00000E+000	-3,62822E-001	-2,71466E-001	3,10963E-002	1,32578E+003	12	..........a
	57	58	8,00035E-001	-4,55363E-001	0,00000E+000	-3,64306E-001	-2,72965E-001	3,13415E-002	1,32579E+003	12	..........a
	58	59	7,98292E-001	-4,44724E-001	0,00000E+000	-3,55020E-001	-2,66617E-001	3,16190E-002	1,32575E+003	12	..........a
	59	60	8,00556E-001	-4,38905E-001	0,00000E+000	-3,51368E-001	-2,63120E-001	3,00319E-002	1,32575E+003	12	..........a
	60	61	8,01657E-001	-4,40882E-001	0,00000E+000	-3,53436E-001	-2,64306E-001	3,07643E-002	1,32575E+003	12	..........a
	61	62	7,98342E-001	-4,56434E-001	0,00000E+000	-3,64390E-001	-2,73615E-001	3,19994E-002	1,32575E+003	12	..........a
	62	63	8,02696E-001	-4,53200E-001	0,00000E+000	-3,63782E-001	-2,71681E-001	3,14029E-002	1,32578E+003	12	..........a
	63	64	7,98963E-001	-4,52614E-001	0,00000E+000	-3,61622E-001	-2,71318E-001	3,16754E-002	1,32583E+003	12	..........a
	64	65	7,97765E-001	-4,55485E-001	0,00000E+000	-3,63370E-001	-2,73045E-001	3,20691E-002	1,32583E+003	12	..........a
	65	66	7,99735E-001	-4,59166E-001	0,00000E+000	-3,67211E-001	-2,75237E-001	3,15151E-002	1,32579E+003	12	..........a
	66	67	7,99246E-001	-4,60469E-001	0,00000E+000	-3,68028E-001	-2,76029E-001	3,20383E-002	1,32575E+003	12	..........a
	67	68	8,02187E-001	-4,46861E-001	0,00000E+000	-3,58466E-001	-2,67880E-001	3,09271E-002	1,32575E+003	12	..........a
	68	69	7,99831E-001	-4,56651E-001	0,00000E+000	-3,65244E-001	-2,73743E-001	3,17955E-002	1,32575E+003	12	..........a
	69	70	7,99215E-001	-4,57052E-001	0,00000E+000	-3,65283E-001	-2,73974E-001	3,13138E-002	1,32575E+003	12	..........a
	70	71	7,99398E-001	-4,46426E-001	0,00000E+000	-3,56872E-001	-2,67622E-001	3,10864E-002	1,32578E+003	12	..........a
	71	72	8,02478E-001	-4,51233E-001	0,00000E+000	-3,62105E-001	-2,70493E-001	3,10693E-002	1,32583E+003	12	..........a
	72	73	7,98330E-001	-4,62440E-001	0,00000E+000	-3,69180E-001	-2,77202E-001	3,15872E-002	1,32583E+003	12	..........a
	73	74	8,00169E-001	-4,54085E-001	0,00000E+000	-3,63345E-001	-2,72200E-001	3,12869E-002	1,32579E+003	12	..........a
	74	75	8,01991E-001	-4,57031E-001	0,00000E+000	-3,66535E-001	-2,73976E-001	3,19686E-002	1,32578E+003	12	..........a
	75	76	8,00058E-001	-4,65400E-001	0,00000E+000	-3,72347E-001	-2,78974E-001	3,24528E-002	1,32579E+003	12	..........a
	76	77	7,97484E-001	-4,49456E-001	0,00000E+000	-3,58434E-001	-2,69431E-001	3,10622E-002	1,32575E+003	12	..........a
	77	78	8,01793E-001	-4,62167E-001	0,00000E+000	-3,70563E-001	-2,77036E-001	3,23156E-002	1,32575E+003	12	..........a
	78	79	8,00132E-001	-4,66752E-001	0,00000E+000	-3,73463E-001	-2,79780E-001	3,28862E-002	1,32575E+003	12	..........a
	79	80	7,99628E-001	-4,47086E-001	0,00000E+000	-3,57503E-001	-2,68010E-001	3,10264E-002	1,32578E+003	12	..........a
	80	81	7,99187E-001	-4,25832E-001	0,00000E+000	-3,40319E-001	-2,55285E-001	2,93361E-002	1,32579E+003	12	..........a
	81	82	8,01487E-001	-4,42821E-001	0,00000E+000	-3,54915E-001	-2,65458E-001	3,02749E-002	1,32575E+003	12	..........a
	82	83	7,98215E-001	-4,39284E-001	0,00000E+000	-3,50643E-001	-2,63348E-001	3,10435E-002	1,32575E+003	12	..........a
	83	84	8,00587E-001	-4,48590E-001	0,00000E+000	-3,59135E-001	-2,68928E-001	3,13834E-002	1,32575E+003	12	..........a
	84	85	7,98958E-001	-4,52412E-001	0,00000E+000	-3,61458E-001	-2,71202E-001	3,20946E-002	1,32578E+003	12	..........a
	85	86	8,00492E-001	-4,44321E-001	0,00000E+000	-3,55676E-001	-2,66344E-001	3,05082E-002	1,32583E+003	12	..........a
	86	87	8,00174E-001	-4,62174E-001	0,00000E+000	-3,69820E-001	-2,77045E-001	3,16498E-002	1,32583E+003	12	..........a
	87	88	7,99751E-001	-4,57044E-001	0,00000E+000	-3,65522E-001	-2,73982E-001	3,13708E-002	1,32583E+003	12	..........a
	88	89	8,01138E-001	-4,53078E-001	0,00000E+000	-3,62978E-001	-2,71591E-001	3,12758E-002	1,32579E+003	12	..........a
	89	90	7,98295E-001	-4,58853E-001	0,00000E+000	-3,66300E-001	-2,75053E-001	3,16220E-002	1,32583E+003	12	..........a
	90	91	8,00863E-001	-4,71319E-001	0,00000E+000	-3,77462E-001	-2,82528E-001	3,28766E-002	1,32587E+003	12	..........a
	91	92	8,00413E-001	-4,47586E-001	0,00000E+000	-3,58254E-001	-2,68324E-001	3,27106E-002	1,32583E+003	12	..........a
	92	93	8,00923E-001	-4,67751E-001	0,00000E+000	-3,74632E-001	-2,80391E-001	3,27821E-002	1,32579E+003	12	..........a
	93	94	8,00242E-001	-4,78602E-001	0,00000E+000	-3,82998E-001	-2,86884E-001	3,28268E-002	1,32578E+003	12	..........a
	94	95	7,98232E-001	-4,73206E-001	0,00000E+000	-3,77728E-001	-2,83654E-001	3,27923E-002	1,32579E+003	12	..........a
	95	96	7,98730E-001	-4,63530E-001	0,00000E+000	-3,70236E-001	-2,77851E-001	3,18888E-002	1,32575E+003	12	..........a
	96	97	8,00694E-001	-4,57078E-001	0,00000E+000	-3,65980E-001	-2,73994E-001	3,14348E-002	1,32575E+003	12	..........a
	97	98	8,00209E-001	-4,67612E-001	0,00000E+000	-3,74187E-001	-2,80303E-001	3,28384E-002	1,32575E+003	12	..........a
	98	99	8,03172E-001	-4,75219E-001	0,00000E+000	-3,81683E-001	-2,84847E-001	3,27556E-002	1,32575E+003	12	..........a
	99	100	7,98792E-001	-4,63333E-001	0,00000E+000	-3,70106E-001	-2,77743E-001	3,24727E-002	1,32510E+003	12	..........a
	100	101	7,99375E-001	-4,47439E-001	0,00000E+000	-3,57671E-001	-2,68226E-001	3,13069E-002	1,32504E+003	12	..........a
	101	102	8,00010E-001	-4,50475E-001	0,00000E+000	-3,60384E-001	-2,70036E-001	3,14286E-002	1,32575E+003	12	..........a
