EXPLAIN
TAG	PWR800_POTENTIOSTATIC
TITLE	LABEL	PWRPOTSTAT_ps10_zn12_paa1_v08	Test &Identifier
DATE	LABEL	12.11.2018	Date
TIME	LABEL	19:08:23	Time
NOTES	NOTES	1	&Notes...
	
PSTAT	PSTAT	IFC5000-03531	Potentiostat
CAPACITY	QUANT	1,00000E+000	Capacity (A-hr)
CELLTYPE	SELECTOR	0	&Cell Type
WORKINGCONNECTION	SELECTOR	0	&Working Lead
MAXI	QUANT	5,00000E+000	Max Current (A)
VOLTAGE	QUANT	8,00000E-001	Voltage (V)
MAXTIME	VARIABLEANDUNITS	3,60000E+003	s	1,00000E+000	hour(s)	Max Time
SAMPLETIME	QUANT	1,00000E+000	Sa&mple Period (s)
STOPTHRESH	VARIABLEANDUNITS	5,00000E+000	s	5,00000E+000	second(s)	Stop At Threshold
STOPAT1	MULTIPARAM	2	5,00000E+000	Stop At &1	|Current| > Limit	A
STOPAT2	MULTIPARAM	0	0,00000E+000	Stop At &2	None	N/A
AESBHCSelector	TOGGLE	F	Save Both Half Cells
IRCOMP	TOGGLE	F	IR Measure
EOC	QUANT	0	Open Circuit (V)
SEQUENCER	TOGGLE	TRUE	Run as Sequence
PSTATMODEL	IQUANT	53	Pstat Model
PSTATSECTION	LABEL	IFC5000-03531	Pstat Section
PSTATSERIALNO	LABEL	03531	Pstat Serial Number
CTRLMODE	IQUANT	0	Control Mode
ELECTROMETER	IQUANT	0	RE=0 or CS=1
IESTAB	IQUANT	0	I/E Stability
CASPEED	IQUANT	4	Control Amp Speed
CONVENTION	IQUANT	1	Current Convention
ICHRANGE	IQUANT	2	Ich Range
ICHRANGEMODE	TOGGLE	T	Ich Auto Range
ICHOFFSETENABLE	TOGGLE	F	Ich Offset Enable
ICHOFFSET	QUANT	0	Ich Offset (V)
ICHFILTER	IQUANT	1	Ich Filter
VCHRANGE	IQUANT	2	Vch Range
VCHRANGEMODE	TOGGLE	T	Vch Auto Range
VCHOFFSETENABLE	TOGGLE	F	Vch Offset Enable
VCHOFFSET	QUANT	0	Vch Offset (V)
VCHFILTER	IQUANT	1	Vch Filter
IERANGELOWERLIMIT	IQUANT	9	I/E Range Lower Limit
IERANGEMODE	TOGGLE	F	I/E AutoRange
IERANGE	IQUANT	12	I/E Range
ACHSELECT	IQUANT	1	Ach Select
ACHRANGE	IQUANT	2	Ach Range
ACHOFFSETENABLE	TOGGLE	F	Ach Offset Enable
ACHOFFSET	QUANT	0	Ach Offset (V)
ACHFILTER	IQUANT	1	Ach Filter
SENSECABLEID	IQUANT	14	Sense Cable ID
PWRCABLEID	IQUANT	7	Power Cable ID
DCCALDATE	LABEL	5/31/2018	DC Calibration Date
ACCALDATE	LABEL	5/15/2017	AC Calibration Date
FRAMEWORKVERSION	QUANT	7,06	Framework Version
INSTRUMENTVERSION	LABEL	4.30	Instrument Version
CURVE	TABLE	66
	Pt	T	Vf	Im	Vu	Pwr	Sig	Ach	Temp	IERange	Over
	#	s	V	A	V	W	V	V	deg C	#	bits
	0	1	8,12443E-001	-2,98993E+000	0,00000E+000	-2,42915E+000	-1,79061E+000	2,43212E-001	1,32482E+003	12	...........
	1	2	8,00074E-001	-3,02488E+000	0,00000E+000	-2,42013E+000	-1,81155E+000	2,46199E-001	1,32263E+003	12	...........
	2	3	7,99269E-001	-2,90521E+000	0,00000E+000	-2,32205E+000	-1,73988E+000	2,36671E-001	1,32306E+003	12	...........
	3	4	7,99894E-001	-2,93910E+000	0,00000E+000	-2,35097E+000	-1,76019E+000	2,39583E-001	1,32356E+003	12	...........
	4	5	7,99945E-001	-2,93694E+000	0,00000E+000	-2,34939E+000	-1,75889E+000	2,39653E-001	1,32373E+003	12	...........
	5	6	8,00816E-001	-2,88851E+000	0,00000E+000	-2,31316E+000	-1,72989E+000	2,35798E-001	1,32364E+003	12	...........
	6	7	7,99997E-001	-2,89427E+000	0,00000E+000	-2,31540E+000	-1,73334E+000	2,36306E-001	1,32339E+003	12	...........
	7	8	7,99071E-001	-2,93776E+000	0,00000E+000	-2,34748E+000	-1,75938E+000	2,39812E-001	1,32323E+003	12	...........
	8	9	8,00535E-001	-2,87659E+000	0,00000E+000	-2,30281E+000	-1,72276E+000	2,34853E-001	1,32313E+003	12	...........
	9	10	7,99571E-001	-2,94301E+000	0,00000E+000	-2,35315E+000	-1,76253E+000	2,40216E-001	1,32313E+003	12	...........
	10	11	8,00538E-001	-2,88281E+000	0,00000E+000	-2,30780E+000	-1,72648E+000	2,35430E-001	1,32389E+003	12	...........
	11	12	7,99478E-001	-2,95461E+000	0,00000E+000	-2,36215E+000	-1,76947E+000	2,41422E-001	1,32313E+003	12	...........
	12	13	7,99998E-001	-2,95278E+000	0,00000E+000	-2,36222E+000	-1,76838E+000	2,41323E-001	1,32313E+003	12	...........
	13	14	8,00512E-001	-3,03524E+000	0,00000E+000	-2,42974E+000	-1,81774E+000	2,48071E-001	1,32313E+003	12	...........
	14	15	7,99497E-001	-2,98272E+000	0,00000E+000	-2,38468E+000	-1,78629E+000	2,43867E-001	1,32306E+003	12	...........
	15	16	8,00924E-001	-2,94613E+000	0,00000E+000	-2,35962E+000	-1,76439E+000	2,40948E-001	1,32313E+003	12	...........
	16	17	7,99138E-001	-2,94211E+000	0,00000E+000	-2,35115E+000	-1,76198E+000	2,40684E-001	1,32306E+003	12	...........
	17	18	7,99977E-001	-2,94658E+000	0,00000E+000	-2,35720E+000	-1,76467E+000	2,41065E-001	1,32423E+003	12	...........
	18	19	8,00102E-001	-2,93557E+000	0,00000E+000	-2,34876E+000	-1,75807E+000	2,40302E-001	1,32306E+003	12	...........
	19	20	7,99928E-001	-2,96165E+000	0,00000E+000	-2,36911E+000	-1,77369E+000	2,42471E-001	1,32306E+003	12	...........
	20	21	8,00394E-001	-2,83215E+000	0,00000E+000	-2,26684E+000	-1,69616E+000	2,32015E-001	1,32313E+003	12	...........
	21	22	7,99707E-001	-2,80605E+000	0,00000E+000	-2,24402E+000	-1,68052E+000	2,29920E-001	1,32313E+003	12	...........
	22	23	7,99545E-001	-2,91332E+000	0,00000E+000	-2,32933E+000	-1,74475E+000	2,38743E-001	1,32313E+003	12	...........
	23	24	8,01362E-001	-2,94194E+000	0,00000E+000	-2,35756E+000	-1,76187E+000	2,41087E-001	1,32313E+003	12	...........
	24	25	7,98917E-001	-2,94434E+000	0,00000E+000	-2,35228E+000	-1,76331E+000	2,41297E-001	1,32439E+003	12	...........
	25	26	7,99996E-001	-2,97137E+000	0,00000E+000	-2,37709E+000	-1,77950E+000	2,43517E-001	1,32356E+003	12	...........
	26	27	8,00699E-001	-2,99024E+000	0,00000E+000	-2,39428E+000	-1,79079E+000	2,45050E-001	1,32356E+003	12	...........
	27	28	8,00353E-001	-2,86563E+000	0,00000E+000	-2,29352E+000	-1,71619E+000	2,34929E-001	1,32364E+003	12	...........
	28	29	7,99154E-001	-2,81367E+000	0,00000E+000	-2,24855E+000	-1,68509E+000	2,30755E-001	1,32373E+003	12	...........
	29	30	7,99916E-001	-2,86163E+000	0,00000E+000	-2,28906E+000	-1,71380E+000	2,34522E-001	1,32389E+003	12	...........
	30	31	7,99659E-001	-2,90435E+000	0,00000E+000	-2,32249E+000	-1,73937E+000	2,37907E-001	1,32398E+003	12	...........
	31	32	8,00464E-001	-2,98015E+000	0,00000E+000	-2,38550E+000	-1,78476E+000	2,44077E-001	1,32313E+003	12	...........
	32	33	7,99727E-001	-2,97490E+000	0,00000E+000	-2,37911E+000	-1,78162E+000	2,43695E-001	1,32364E+003	12	...........
	33	34	8,00003E-001	-3,06269E+000	0,00000E+000	-2,45016E+000	-1,83417E+000	2,50881E-001	1,32313E+003	12	...........
	34	35	8,00219E-001	-2,97436E+000	0,00000E+000	-2,38014E+000	-1,78129E+000	2,43639E-001	1,32306E+003	12	...........
	35	36	8,00224E-001	-3,00447E+000	0,00000E+000	-2,40424E+000	-1,79931E+000	2,46045E-001	1,32313E+003	12	...........
	36	37	8,00279E-001	-2,91481E+000	0,00000E+000	-2,33266E+000	-1,74563E+000	2,38640E-001	1,32313E+003	12	...........
	37	38	7,99260E-001	-2,87411E+000	0,00000E+000	-2,29716E+000	-1,72126E+000	2,35362E-001	1,32306E+003	12	...........
	38	39	7,99951E-001	-2,93269E+000	0,00000E+000	-2,34601E+000	-1,75635E+000	2,40289E-001	1,32313E+003	12	...........
	39	40	8,00065E-001	-2,94389E+000	0,00000E+000	-2,35530E+000	-1,76304E+000	2,41326E-001	1,32381E+003	12	...........
	40	41	8,00716E-001	-2,93517E+000	0,00000E+000	-2,35024E+000	-1,75783E+000	2,40755E-001	1,32313E+003	12	...........
	41	42	8,00172E-001	-2,92450E+000	0,00000E+000	-2,34010E+000	-1,75143E+000	2,39862E-001	1,32323E+003	12	...........
	42	43	7,99637E-001	-2,88525E+000	0,00000E+000	-2,30715E+000	-1,72794E+000	2,36672E-001	1,32323E+003	12	...........
	43	44	7,99917E-001	-2,99354E+000	0,00000E+000	-2,39459E+000	-1,79278E+000	2,45487E-001	1,32313E+003	12	...........
	44	45	7,99946E-001	-2,90565E+000	0,00000E+000	-2,32436E+000	-1,74016E+000	2,38376E-001	1,32323E+003	12	...........
	45	46	7,99849E-001	-2,90732E+000	0,00000E+000	-2,32541E+000	-1,74116E+000	2,38614E-001	1,32323E+003	12	...........
	46	47	7,99353E-001	-2,95985E+000	0,00000E+000	-2,36596E+000	-1,77261E+000	2,42925E-001	1,32414E+003	12	...........
	47	48	8,00359E-001	-2,96490E+000	0,00000E+000	-2,37298E+000	-1,77563E+000	2,43382E-001	1,32313E+003	12	...........
	48	49	8,00042E-001	-2,98352E+000	0,00000E+000	-2,38695E+000	-1,78679E+000	2,44916E-001	1,32313E+003	12	...........
	49	50	8,00672E-001	-2,95096E+000	0,00000E+000	-2,36275E+000	-1,76729E+000	2,42409E-001	1,32313E+003	12	...........
	50	51	7,99383E-001	-2,91304E+000	0,00000E+000	-2,32863E+000	-1,74458E+000	2,39391E-001	1,32313E+003	12	...........
	51	52	7,99946E-001	-2,96043E+000	0,00000E+000	-2,36818E+000	-1,77295E+000	2,43208E-001	1,32313E+003	12	...........
	52	53	8,00166E-001	-2,89154E+000	0,00000E+000	-2,31372E+000	-1,73171E+000	2,37502E-001	1,32313E+003	12	...........
	53	54	8,00007E-001	-2,93279E+000	0,00000E+000	-2,34625E+000	-1,75641E+000	2,40883E-001	1,32439E+003	12	...........
	54	55	8,00468E-001	-2,92020E+000	0,00000E+000	-2,33753E+000	-1,74886E+000	2,40000E-001	1,32381E+003	12	...........
	55	56	8,00094E-001	-2,92641E+000	0,00000E+000	-2,34141E+000	-1,75259E+000	2,40523E-001	1,32381E+003	12	...........
	56	57	7,99490E-001	-2,88663E+000	0,00000E+000	-2,30783E+000	-1,72876E+000	2,37247E-001	1,32389E+003	12	...........
	57	58	8,00460E-001	-2,93652E+000	0,00000E+000	-2,35056E+000	-1,75863E+000	2,41314E-001	1,32406E+003	12	...........
	58	59	7,99919E-001	-3,02182E+000	0,00000E+000	-2,41721E+000	-1,80970E+000	2,48233E-001	1,32423E+003	12	...........
	59	60	7,99904E-001	-2,99736E+000	0,00000E+000	-2,39760E+000	-1,79506E+000	2,46224E-001	1,32431E+003	12	...........
	60	61	7,99874E-001	-3,00637E+000	0,00000E+000	-2,40472E+000	-1,80046E+000	2,46983E-001	1,32313E+003	12	...........
	61	62	7,99593E-001	-3,02792E+000	0,00000E+000	-2,42111E+000	-1,81337E+000	2,48767E-001	1,32356E+003	12	...........
	62	63	7,99974E-001	-2,93704E+000	0,00000E+000	-2,34955E+000	-1,75895E+000	2,41227E-001	1,32313E+003	12	...........
	63	64	8,01169E-001	-2,96854E+000	0,00000E+000	-2,37830E+000	-1,77780E+000	2,43759E-001	1,32313E+003	12	...........
	64	65	7,98871E-001	-3,05804E+000	0,00000E+000	-2,44298E+000	-1,83141E+000	2,51054E-001	1,32323E+003	12	...........
	65	66	8,00001E-001	-3,01926E+000	0,00000E+000	-2,41541E+000	-1,80817E+000	2,47767E-001	1,32323E+003	12	...........
