EXPLAIN
TAG	PWR800_POTENTIOSTATIC
TITLE	LABEL	PWRPOTSTAT_ps10_zn8_paa1_v08	Test &Identifier
DATE	LABEL	12.11.2018	Date
TIME	LABEL	18:45:38	Time
NOTES	NOTES	1	&Notes...
	
PSTAT	PSTAT	IFC5000-03531	Potentiostat
CAPACITY	QUANT	1,00000E+000	Capacity (A-hr)
CELLTYPE	SELECTOR	0	&Cell Type
WORKINGCONNECTION	SELECTOR	0	&Working Lead
MAXI	QUANT	5,00000E+000	Max Current (A)
VOLTAGE	QUANT	8,00000E-001	Voltage (V)
MAXTIME	VARIABLEANDUNITS	3,60000E+003	s	1,00000E+000	hour(s)	Max Time
SAMPLETIME	QUANT	1,00000E+000	Sa&mple Period (s)
STOPTHRESH	VARIABLEANDUNITS	5,00000E+000	s	5,00000E+000	second(s)	Stop At Threshold
STOPAT1	MULTIPARAM	2	5,00000E+000	Stop At &1	|Current| > Limit	A
STOPAT2	MULTIPARAM	0	0,00000E+000	Stop At &2	None	N/A
AESBHCSelector	TOGGLE	F	Save Both Half Cells
IRCOMP	TOGGLE	F	IR Measure
EOC	QUANT	0	Open Circuit (V)
SEQUENCER	TOGGLE	TRUE	Run as Sequence
PSTATMODEL	IQUANT	53	Pstat Model
PSTATSECTION	LABEL	IFC5000-03531	Pstat Section
PSTATSERIALNO	LABEL	03531	Pstat Serial Number
CTRLMODE	IQUANT	0	Control Mode
ELECTROMETER	IQUANT	0	RE=0 or CS=1
IESTAB	IQUANT	0	I/E Stability
CASPEED	IQUANT	4	Control Amp Speed
CONVENTION	IQUANT	1	Current Convention
ICHRANGE	IQUANT	2	Ich Range
ICHRANGEMODE	TOGGLE	T	Ich Auto Range
ICHOFFSETENABLE	TOGGLE	F	Ich Offset Enable
ICHOFFSET	QUANT	0	Ich Offset (V)
ICHFILTER	IQUANT	1	Ich Filter
VCHRANGE	IQUANT	2	Vch Range
VCHRANGEMODE	TOGGLE	T	Vch Auto Range
VCHOFFSETENABLE	TOGGLE	F	Vch Offset Enable
VCHOFFSET	QUANT	0	Vch Offset (V)
VCHFILTER	IQUANT	1	Vch Filter
IERANGELOWERLIMIT	IQUANT	9	I/E Range Lower Limit
IERANGEMODE	TOGGLE	F	I/E AutoRange
IERANGE	IQUANT	12	I/E Range
ACHSELECT	IQUANT	1	Ach Select
ACHRANGE	IQUANT	2	Ach Range
ACHOFFSETENABLE	TOGGLE	F	Ach Offset Enable
ACHOFFSET	QUANT	0	Ach Offset (V)
ACHFILTER	IQUANT	1	Ach Filter
SENSECABLEID	IQUANT	14	Sense Cable ID
PWRCABLEID	IQUANT	7	Power Cable ID
DCCALDATE	LABEL	5/31/2018	DC Calibration Date
ACCALDATE	LABEL	5/15/2017	AC Calibration Date
FRAMEWORKVERSION	QUANT	7,06	Framework Version
INSTRUMENTVERSION	LABEL	4.30	Instrument Version
CURVE	TABLE	113
	Pt	T	Vf	Im	Vu	Pwr	Sig	Ach	Temp	IERange	Over
	#	s	V	A	V	W	V	V	deg C	#	bits
	0	1	8,59967E-001	-1,99659E+000	0,00000E+000	-1,71700E+000	-1,21396E+000	1,67300E-001	1,32298E+003	12	..chih..iva
	1	2	7,49202E-001	-2,49464E+000	0,00000E+000	-1,86899E+000	-1,49401E+000	2,00605E-001	1,32178E+003	12	.........va
	2	3	7,99970E-001	-2,43329E+000	0,00000E+000	-1,94656E+000	-1,45729E+000	1,98929E-001	1,32218E+003	12	...........
	3	4	8,00016E-001	-2,41648E+000	0,00000E+000	-1,93322E+000	-1,44722E+000	1,98464E-001	1,32278E+003	12	...........
	4	5	8,00005E-001	-2,31847E+000	0,00000E+000	-1,85479E+000	-1,38855E+000	1,90920E-001	1,32295E+003	12	...........
	5	6	8,00004E-001	-2,40535E+000	0,00000E+000	-1,92429E+000	-1,44056E+000	1,98360E-001	1,32298E+003	12	...........
	6	7	7,99991E-001	-2,34982E+000	0,00000E+000	-1,87983E+000	-1,40730E+000	1,94089E-001	1,32298E+003	12	...........
	7	8	7,99953E-001	-2,49511E+000	0,00000E+000	-1,99597E+000	-1,49431E+000	2,06254E-001	1,32298E+003	12	...........
	8	9	8,00039E-001	-2,40158E+000	0,00000E+000	-1,92135E+000	-1,43830E+000	1,98651E-001	1,32291E+003	12	...........
	9	10	7,99963E-001	-2,50395E+000	0,00000E+000	-2,00306E+000	-1,49960E+000	2,07060E-001	1,32295E+003	12	...........
	10	11	8,00005E-001	-2,53358E+000	0,00000E+000	-2,02688E+000	-1,51734E+000	2,09516E-001	1,32298E+003	12	...........
	11	12	7,99959E-001	-2,49183E+000	0,00000E+000	-1,99336E+000	-1,49234E+000	2,06340E-001	1,32298E+003	12	...........
	12	13	7,99996E-001	-2,58468E+000	0,00000E+000	-2,06773E+000	-1,54793E+000	2,14192E-001	1,32291E+003	12	...........
	13	14	8,00012E-001	-2,52825E+000	0,00000E+000	-2,02263E+000	-1,51414E+000	2,09833E-001	1,32295E+003	12	...........
	14	15	8,00011E-001	-2,53615E+000	0,00000E+000	-2,02895E+000	-1,51888E+000	2,10607E-001	1,32298E+003	12	...........
	15	16	7,99972E-001	-2,58441E+000	0,00000E+000	-2,06745E+000	-1,54777E+000	2,14640E-001	1,32291E+003	12	...........
	16	17	8,00011E-001	-2,58870E+000	0,00000E+000	-2,07098E+000	-1,55034E+000	2,15140E-001	1,32295E+003	12	...........
	17	18	7,99984E-001	-2,62972E+000	0,00000E+000	-2,10374E+000	-1,57489E+000	2,18595E-001	1,32291E+003	12	...........
	18	19	8,00010E-001	-2,59818E+000	0,00000E+000	-2,07857E+000	-1,55602E+000	2,16193E-001	1,32288E+003	12	...........
	19	20	8,00009E-001	-2,56805E+000	0,00000E+000	-2,05446E+000	-1,53797E+000	2,14012E-001	1,32288E+003	12	...........
	20	21	7,99985E-001	-2,55243E+000	0,00000E+000	-2,04190E+000	-1,52862E+000	2,13185E-001	1,32295E+003	12	...........
	21	22	7,99990E-001	-2,56944E+000	0,00000E+000	-2,05552E+000	-1,53881E+000	2,14777E-001	1,32298E+003	12	...........
	22	23	8,00035E-001	-2,57116E+000	0,00000E+000	-2,05701E+000	-1,53984E+000	2,15048E-001	1,32298E+003	12	...........
	23	24	7,99989E-001	-2,55909E+000	0,00000E+000	-2,04724E+000	-1,53262E+000	2,14243E-001	1,32298E+003	12	...........
	24	25	7,99985E-001	-2,56842E+000	0,00000E+000	-2,05470E+000	-1,53820E+000	2,15051E-001	1,32298E+003	12	...........
	25	26	7,99983E-001	-2,57153E+000	0,00000E+000	-2,05718E+000	-1,54008E+000	2,14984E-001	1,32298E+003	12	...........
	26	27	8,00025E-001	-2,57534E+000	0,00000E+000	-2,06034E+000	-1,54235E+000	2,15493E-001	1,32298E+003	12	...........
	27	28	7,99979E-001	-2,60676E+000	0,00000E+000	-2,08536E+000	-1,56116E+000	2,18395E-001	1,32291E+003	12	...........
	28	29	8,00030E-001	-2,60733E+000	0,00000E+000	-2,08594E+000	-1,56150E+000	2,18331E-001	1,32288E+003	12	...........
	29	30	7,99983E-001	-2,49753E+000	0,00000E+000	-1,99798E+000	-1,49576E+000	2,08985E-001	1,32295E+003	12	...........
	30	31	7,99966E-001	-2,59353E+000	0,00000E+000	-2,07474E+000	-1,55324E+000	2,17182E-001	1,32298E+003	12	...........
	31	32	8,00032E-001	-2,55577E+000	0,00000E+000	-2,04470E+000	-1,53063E+000	2,14211E-001	1,32298E+003	12	...........
	32	33	7,99970E-001	-2,50813E+000	0,00000E+000	-2,00643E+000	-1,50211E+000	2,10575E-001	1,32298E+003	12	...........
	33	34	8,00026E-001	-2,53152E+000	0,00000E+000	-2,02528E+000	-1,51611E+000	2,12896E-001	1,32298E+003	12	...........
	34	35	8,00007E-001	-2,54128E+000	0,00000E+000	-2,03304E+000	-1,52195E+000	2,13827E-001	1,32298E+003	12	...........
	35	36	8,00014E-001	-2,54243E+000	0,00000E+000	-2,03398E+000	-1,52263E+000	2,13906E-001	1,32298E+003	12	...........
	36	37	7,99969E-001	-2,54881E+000	0,00000E+000	-2,03897E+000	-1,52646E+000	2,14504E-001	1,32298E+003	12	...........
	37	38	8,00016E-001	-2,51656E+000	0,00000E+000	-2,01329E+000	-1,50716E+000	2,11763E-001	1,32298E+003	12	...........
	38	39	7,99974E-001	-2,56593E+000	0,00000E+000	-2,05268E+000	-1,53671E+000	2,15665E-001	1,32298E+003	12	...........
	39	40	7,99962E-001	-2,62073E+000	0,00000E+000	-2,09648E+000	-1,56952E+000	2,20353E-001	1,32298E+003	12	...........
	40	41	7,99997E-001	-2,61252E+000	0,00000E+000	-2,09001E+000	-1,56460E+000	2,19403E-001	1,32298E+003	12	...........
	41	42	8,00017E-001	-2,59577E+000	0,00000E+000	-2,07666E+000	-1,55457E+000	2,17687E-001	1,32298E+003	12	...........
	42	43	8,00033E-001	-2,59768E+000	0,00000E+000	-2,07823E+000	-1,55571E+000	2,18052E-001	1,32298E+003	12	...........
	43	44	8,00024E-001	-2,53735E+000	0,00000E+000	-2,02994E+000	-1,51959E+000	2,13429E-001	1,32298E+003	12	...........
	44	45	7,99964E-001	-2,53523E+000	0,00000E+000	-2,02809E+000	-1,51832E+000	2,13115E-001	1,32298E+003	12	...........
	45	46	8,00013E-001	-2,57525E+000	0,00000E+000	-2,06024E+000	-1,54229E+000	2,16396E-001	1,32298E+003	12	...........
	46	47	7,99979E-001	-2,57611E+000	0,00000E+000	-2,06083E+000	-1,54280E+000	2,16985E-001	1,32298E+003	12	...........
	47	48	7,99995E-001	-2,53849E+000	0,00000E+000	-2,03078E+000	-1,52028E+000	2,13934E-001	1,32298E+003	12	...........
	48	49	8,00024E-001	-2,59141E+000	0,00000E+000	-2,07319E+000	-1,55196E+000	2,18213E-001	1,32298E+003	12	...........
	49	50	7,99986E-001	-2,52209E+000	0,00000E+000	-2,01764E+000	-1,51046E+000	2,12867E-001	1,32298E+003	12	...........
	50	51	7,99982E-001	-2,54279E+000	0,00000E+000	-2,03418E+000	-1,52285E+000	2,14477E-001	1,32298E+003	12	...........
	51	52	8,00042E-001	-2,51973E+000	0,00000E+000	-2,01589E+000	-1,50904E+000	2,12420E-001	1,32298E+003	12	...........
	52	53	7,99997E-001	-2,52041E+000	0,00000E+000	-2,01632E+000	-1,50945E+000	2,12375E-001	1,32298E+003	12	...........
	53	54	7,99949E-001	-2,52894E+000	0,00000E+000	-2,02303E+000	-1,51456E+000	2,13162E-001	1,32298E+003	12	...........
	54	55	8,00005E-001	-2,59197E+000	0,00000E+000	-2,07359E+000	-1,55230E+000	2,18644E-001	1,32303E+003	12	...........
	55	56	8,00043E-001	-2,56980E+000	0,00000E+000	-2,05595E+000	-1,53902E+000	2,16859E-001	1,32301E+003	12	...........
	56	57	8,00008E-001	-2,46636E+000	0,00000E+000	-1,97311E+000	-1,47709E+000	2,08172E-001	1,32303E+003	12	...........
	57	58	7,99991E-001	-2,54961E+000	0,00000E+000	-2,03966E+000	-1,52693E+000	2,15445E-001	1,32306E+003	12	...........
	58	59	7,99964E-001	-2,56762E+000	0,00000E+000	-2,05400E+000	-1,53772E+000	2,16942E-001	1,32301E+003	12	...........
	59	60	8,00039E-001	-2,54262E+000	0,00000E+000	-2,03420E+000	-1,52275E+000	2,15041E-001	1,32303E+003	12	...........
	60	61	8,00011E-001	-2,57569E+000	0,00000E+000	-2,06058E+000	-1,54255E+000	2,17813E-001	1,32301E+003	12	...........
	61	62	8,00047E-001	-2,51345E+000	0,00000E+000	-2,01088E+000	-1,50528E+000	2,12627E-001	1,32298E+003	12	...........
	62	63	7,99964E-001	-2,52130E+000	0,00000E+000	-2,01695E+000	-1,50998E+000	2,13550E-001	1,32303E+003	12	...........
	63	64	7,99927E-001	-2,48715E+000	0,00000E+000	-1,98954E+000	-1,48954E+000	2,10541E-001	1,32306E+003	12	...........
	64	65	8,00004E-001	-2,54774E+000	0,00000E+000	-2,03820E+000	-1,52582E+000	2,15360E-001	1,32306E+003	12	...........
	65	66	8,00030E-001	-2,57133E+000	0,00000E+000	-2,05714E+000	-1,53994E+000	2,17408E-001	1,32301E+003	12	...........
	66	67	8,00049E-001	-2,51436E+000	0,00000E+000	-2,01161E+000	-1,50583E+000	2,12545E-001	1,32303E+003	12	...........
	67	68	7,99982E-001	-2,48962E+000	0,00000E+000	-1,99165E+000	-1,49101E+000	2,10416E-001	1,32301E+003	12	...........
	68	69	8,00002E-001	-2,44175E+000	0,00000E+000	-1,95340E+000	-1,46234E+000	2,06589E-001	1,32303E+003	12	...........
	69	70	8,00007E-001	-2,41217E+000	0,00000E+000	-1,92976E+000	-1,44464E+000	2,03835E-001	1,32301E+003	12	...........
	70	71	7,99983E-001	-2,44288E+000	0,00000E+000	-1,95426E+000	-1,46303E+000	2,06306E-001	1,32303E+003	12	...........
	71	72	8,00000E-001	-2,52239E+000	0,00000E+000	-2,01791E+000	-1,51063E+000	2,13129E-001	1,32306E+003	12	...........
	72	73	8,00025E-001	-2,38393E+000	0,00000E+000	-1,90721E+000	-1,42774E+000	2,01671E-001	1,32306E+003	12	...........
	73	74	7,99989E-001	-2,42943E+000	0,00000E+000	-1,94352E+000	-1,45497E+000	2,05513E-001	1,32306E+003	12	...........
	74	75	7,99977E-001	-2,34705E+000	0,00000E+000	-1,87759E+000	-1,40565E+000	1,99002E-001	1,32306E+003	12	...........
	75	76	8,00012E-001	-2,37881E+000	0,00000E+000	-1,90307E+000	-1,42467E+000	2,01404E-001	1,32306E+003	12	...........
	76	77	7,99977E-001	-2,47157E+000	0,00000E+000	-1,97720E+000	-1,48021E+000	2,09068E-001	1,32306E+003	12	...........
	77	78	8,00024E-001	-2,44301E+000	0,00000E+000	-1,95447E+000	-1,46310E+000	2,06372E-001	1,32306E+003	12	...........
	78	79	8,00024E-001	-2,43908E+000	0,00000E+000	-1,95132E+000	-1,46075E+000	2,06225E-001	1,32306E+003	12	...........
	79	80	7,99972E-001	-2,35181E+000	0,00000E+000	-1,88138E+000	-1,40850E+000	1,99107E-001	1,32306E+003	12	...........
	80	81	8,00014E-001	-2,42865E+000	0,00000E+000	-1,94296E+000	-1,45450E+000	2,05783E-001	1,32306E+003	12	...........
	81	82	7,99983E-001	-2,43213E+000	0,00000E+000	-1,94567E+000	-1,45659E+000	2,06247E-001	1,32306E+003	12	...........
	82	83	8,00038E-001	-2,46191E+000	0,00000E+000	-1,96962E+000	-1,47443E+000	2,08848E-001	1,32306E+003	12	...........
	83	84	7,99979E-001	-2,38355E+000	0,00000E+000	-1,90679E+000	-1,42751E+000	2,02306E-001	1,32306E+003	12	...........
	84	85	7,99984E-001	-2,34030E+000	0,00000E+000	-1,87221E+000	-1,40161E+000	1,98883E-001	1,32306E+003	12	...........
	85	86	8,00039E-001	-2,37688E+000	0,00000E+000	-1,90159E+000	-1,42350E+000	2,02097E-001	1,32310E+003	12	...........
	86	87	8,00011E-001	-2,36254E+000	0,00000E+000	-1,89006E+000	-1,41493E+000	2,00917E-001	1,32309E+003	12	...........
	87	88	7,99928E-001	-2,42018E+000	0,00000E+000	-1,93597E+000	-1,44944E+000	2,06069E-001	1,32306E+003	12	...........
	88	89	8,00035E-001	-2,35623E+000	0,00000E+000	-1,88507E+000	-1,41115E+000	2,01150E-001	1,32310E+003	12	...........
	89	90	7,99034E-001	-2,29766E+000	0,00000E+000	-1,83591E+000	-1,37609E+000	1,95637E-001	1,32309E+003	12	...........
	90	91	8,00082E-001	-2,36847E+000	0,00000E+000	-1,89497E+000	-1,41847E+000	2,01368E-001	1,32306E+003	12	...........
	91	92	7,99967E-001	-2,47643E+000	0,00000E+000	-1,98106E+000	-1,48312E+000	2,11135E-001	1,32310E+003	12	...........
	92	93	8,00006E-001	-2,48959E+000	0,00000E+000	-1,99169E+000	-1,49100E+000	2,12084E-001	1,32313E+003	12	...........
	93	94	7,99907E-001	-2,41427E+000	0,00000E+000	-1,93119E+000	-1,44590E+000	2,05571E-001	1,32313E+003	12	...........
	94	95	8,00395E-001	-2,23394E+000	0,00000E+000	-1,78803E+000	-1,33793E+000	1,90140E-001	1,32313E+003	12	...........
	95	96	8,00241E-001	-2,25741E+000	0,00000E+000	-1,80647E+000	-1,35199E+000	1,91921E-001	1,32313E+003	12	...........
	96	97	7,99983E-001	-2,35946E+000	0,00000E+000	-1,88753E+000	-1,41308E+000	2,00132E-001	1,32313E+003	12	...........
	97	98	8,00017E-001	-2,33917E+000	0,00000E+000	-1,87137E+000	-1,40093E+000	1,98230E-001	1,32313E+003	12	...........
	98	99	8,00035E-001	-2,30444E+000	0,00000E+000	-1,84363E+000	-1,38015E+000	1,95599E-001	1,32313E+003	12	...........
	99	100	7,99963E-001	-2,25512E+000	0,00000E+000	-1,80402E+000	-1,35063E+000	1,91711E-001	1,32309E+003	12	...........
	100	101	8,00010E-001	-2,29195E+000	0,00000E+000	-1,83358E+000	-1,37267E+000	1,95032E-001	1,32310E+003	12	...........
	101	102	8,00012E-001	-2,33544E+000	0,00000E+000	-1,86838E+000	-1,39871E+000	1,98725E-001	1,32313E+003	12	...........
	102	103	7,99402E-001	-2,34622E+000	0,00000E+000	-1,87557E+000	-1,40516E+000	1,99100E-001	1,32313E+003	12	...........
	103	104	7,99967E-001	-2,32933E+000	0,00000E+000	-1,86339E+000	-1,39506E+000	1,97727E-001	1,32309E+003	12	...........
	104	105	8,00050E-001	-2,26587E+000	0,00000E+000	-1,81281E+000	-1,35707E+000	1,92299E-001	1,32310E+003	12	...........
	105	106	8,00018E-001	-2,36656E+000	0,00000E+000	-1,89329E+000	-1,41734E+000	2,00350E-001	1,32313E+003	12	...........
	106	107	7,99943E-001	-2,43006E+000	0,00000E+000	-1,94391E+000	-1,45536E+000	2,05308E-001	1,32313E+003	12	...........
	107	108	8,00046E-001	-2,33890E+000	0,00000E+000	-1,87123E+000	-1,40078E+000	1,97485E-001	1,32313E+003	12	...........
	108	109	7,99940E-001	-2,29503E+000	0,00000E+000	-1,83589E+000	-1,37452E+000	1,93988E-001	1,32313E+003	12	...........
	109	110	8,00200E-001	-2,22178E+000	0,00000E+000	-1,77787E+000	-1,33066E+000	1,87918E-001	1,32313E+003	12	...........
	110	111	7,99859E-001	-2,30867E+000	0,00000E+000	-1,84661E+000	-1,38268E+000	1,95183E-001	1,32313E+003	12	...........
	111	112	8,00022E-001	-2,34599E+000	0,00000E+000	-1,87684E+000	-1,40502E+000	1,97992E-001	1,32313E+003	12	...........
	112	113	7,99953E-001	-2,33814E+000	0,00000E+000	-1,87040E+000	-1,40033E+000	1,97157E-001	1,32313E+003	12	...........
