EXPLAIN
TAG	PWR800_POTENTIOSTATIC
TITLE	LABEL	PWRPOTSTAT_ps100_zn8_paa1_v08	Test &Identifier
DATE	LABEL	12.11.2018	Date
TIME	LABEL	18:42:27	Time
NOTES	NOTES	1	&Notes...
	
PSTAT	PSTAT	IFC5000-03531	Potentiostat
CAPACITY	QUANT	1,00000E+000	Capacity (A-hr)
CELLTYPE	SELECTOR	0	&Cell Type
WORKINGCONNECTION	SELECTOR	0	&Working Lead
MAXI	QUANT	5,00000E+000	Max Current (A)
VOLTAGE	QUANT	8,00000E-001	Voltage (V)
MAXTIME	VARIABLEANDUNITS	3,60000E+003	s	1,00000E+000	hour(s)	Max Time
SAMPLETIME	QUANT	1,00000E+000	Sa&mple Period (s)
STOPTHRESH	VARIABLEANDUNITS	5,00000E+000	s	5,00000E+000	second(s)	Stop At Threshold
STOPAT1	MULTIPARAM	2	5,00000E+000	Stop At &1	|Current| > Limit	A
STOPAT2	MULTIPARAM	0	0,00000E+000	Stop At &2	None	N/A
AESBHCSelector	TOGGLE	F	Save Both Half Cells
IRCOMP	TOGGLE	F	IR Measure
EOC	QUANT	0	Open Circuit (V)
SEQUENCER	TOGGLE	TRUE	Run as Sequence
PSTATMODEL	IQUANT	53	Pstat Model
PSTATSECTION	LABEL	IFC5000-03531	Pstat Section
PSTATSERIALNO	LABEL	03531	Pstat Serial Number
CTRLMODE	IQUANT	0	Control Mode
ELECTROMETER	IQUANT	0	RE=0 or CS=1
IESTAB	IQUANT	0	I/E Stability
CASPEED	IQUANT	4	Control Amp Speed
CONVENTION	IQUANT	1	Current Convention
ICHRANGE	IQUANT	2	Ich Range
ICHRANGEMODE	TOGGLE	T	Ich Auto Range
ICHOFFSETENABLE	TOGGLE	F	Ich Offset Enable
ICHOFFSET	QUANT	0	Ich Offset (V)
ICHFILTER	IQUANT	1	Ich Filter
VCHRANGE	IQUANT	2	Vch Range
VCHRANGEMODE	TOGGLE	T	Vch Auto Range
VCHOFFSETENABLE	TOGGLE	F	Vch Offset Enable
VCHOFFSET	QUANT	0	Vch Offset (V)
VCHFILTER	IQUANT	1	Vch Filter
IERANGELOWERLIMIT	IQUANT	9	I/E Range Lower Limit
IERANGEMODE	TOGGLE	F	I/E AutoRange
IERANGE	IQUANT	12	I/E Range
ACHSELECT	IQUANT	1	Ach Select
ACHRANGE	IQUANT	2	Ach Range
ACHOFFSETENABLE	TOGGLE	F	Ach Offset Enable
ACHOFFSET	QUANT	0	Ach Offset (V)
ACHFILTER	IQUANT	1	Ach Filter
SENSECABLEID	IQUANT	14	Sense Cable ID
PWRCABLEID	IQUANT	7	Power Cable ID
DCCALDATE	LABEL	5/31/2018	DC Calibration Date
ACCALDATE	LABEL	5/15/2017	AC Calibration Date
FRAMEWORKVERSION	QUANT	7,06	Framework Version
INSTRUMENTVERSION	LABEL	4.30	Instrument Version
CURVE	TABLE	145
	Pt	T	Vf	Im	Vu	Pwr	Sig	Ach	Temp	IERange	Over
	#	s	V	A	V	W	V	V	deg C	#	bits
	0	1	8,59669E-001	-1,29870E+000	0,00000E+000	-1,11645E+000	-7,77857E-001	1,09312E-001	1,32232E+003	12	.........va
	1	2	8,08983E-001	-1,40736E+000	0,00000E+000	-1,13853E+000	-8,42942E-001	1,15274E-001	1,32212E+003	12	..........a
	2	3	7,97666E-001	-1,40194E+000	0,00000E+000	-1,11828E+000	-8,39699E-001	1,12190E-001	1,32227E+003	12	..........a
	3	4	7,99957E-001	-1,38227E+000	0,00000E+000	-1,10575E+000	-8,27924E-001	1,09050E-001	1,32139E+003	12	..........a
	4	5	7,99354E-001	-1,36467E+000	0,00000E+000	-1,09085E+000	-8,17391E-001	1,09282E-001	1,32161E+003	12	..........a
	5	6	8,05223E-001	-1,32921E+000	0,00000E+000	-1,07031E+000	-7,96151E-001	1,05072E-001	1,32226E+003	12	..........a
	6	7	8,00684E-001	-1,36931E+000	0,00000E+000	-1,09638E+000	-8,20161E-001	1,09186E-001	1,32195E+003	12	..........a
	7	8	7,95341E-001	-1,37646E+000	0,00000E+000	-1,09476E+000	-8,24435E-001	1,09461E-001	1,32163E+003	12	..........a
	8	9	7,96543E-001	-1,35343E+000	0,00000E+000	-1,07807E+000	-8,10666E-001	1,06994E-001	1,32245E+003	12	..........a
	9	10	8,00964E-001	-1,34674E+000	0,00000E+000	-1,07869E+000	-8,06648E-001	1,06130E-001	1,32237E+003	12	..........a
	10	11	8,05375E-001	-1,28853E+000	0,00000E+000	-1,03775E+000	-7,71782E-001	1,01296E-001	1,32226E+003	12	..........a
	11	12	7,96452E-001	-1,36587E+000	0,00000E+000	-1,08785E+000	-8,18103E-001	1,07842E-001	1,32193E+003	12	..........a
	12	13	7,97712E-001	-1,31116E+000	0,00000E+000	-1,04593E+000	-7,85345E-001	1,02940E-001	1,32135E+003	12	..........a
	13	14	8,02862E-001	-1,32851E+000	0,00000E+000	-1,06661E+000	-7,95726E-001	1,04513E-001	1,32158E+003	12	..........a
	14	15	8,02908E-001	-1,28095E+000	0,00000E+000	-1,02849E+000	-7,67263E-001	1,00518E-001	1,32133E+003	12	..........a
	15	16	7,97128E-001	-1,33949E+000	0,00000E+000	-1,06774E+000	-8,02307E-001	1,06334E-001	1,32112E+003	12	..........a
	16	17	7,97714E-001	-1,32068E+000	0,00000E+000	-1,05352E+000	-7,91048E-001	1,03567E-001	1,32116E+003	12	..........a
	17	18	8,00133E-001	-1,29413E+000	0,00000E+000	-1,03548E+000	-7,75145E-001	1,01881E-001	1,32153E+003	12	..........a
	18	19	8,03176E-001	-1,29274E+000	0,00000E+000	-1,03830E+000	-7,74303E-001	1,01279E-001	1,32250E+003	12	..........a
	19	20	7,96165E-001	-1,29561E+000	0,00000E+000	-1,03152E+000	-7,76032E-001	1,02244E-001	1,32176E+003	12	..........a
	20	21	8,01608E-001	-1,26692E+000	0,00000E+000	-1,01557E+000	-7,58839E-001	1,00466E-001	1,32128E+003	12	..........a
	21	22	8,02164E-001	-1,28433E+000	0,00000E+000	-1,03024E+000	-7,69265E-001	1,00669E-001	1,32154E+003	12	..........a
	22	23	7,98107E-001	-1,29036E+000	0,00000E+000	-1,02985E+000	-7,72883E-001	1,01778E-001	1,32114E+003	12	..........a
	23	24	7,98184E-001	-1,25629E+000	0,00000E+000	-1,00275E+000	-7,52487E-001	9,92274E-002	1,32131E+003	12	..........a
	24	25	8,02813E-001	-1,25156E+000	0,00000E+000	-1,00477E+000	-7,49658E-001	9,83010E-002	1,32169E+003	12	..........a
	25	26	7,99087E-001	-1,25595E+000	0,00000E+000	-1,00361E+000	-7,52286E-001	9,86886E-002	1,32128E+003	12	..........a
	26	27	7,96213E-001	-1,26847E+000	0,00000E+000	-1,00997E+000	-7,59779E-001	1,00139E-001	1,32170E+003	12	..........a
	27	28	8,06342E-001	-1,24231E+000	0,00000E+000	-1,00173E+000	-7,44110E-001	9,81804E-002	1,32197E+003	12	..........a
	28	29	7,97082E-001	-1,26651E+000	0,00000E+000	-1,00951E+000	-7,58612E-001	9,88432E-002	1,32147E+003	12	..........a
	29	30	7,98629E-001	-1,25602E+000	0,00000E+000	-1,00310E+000	-7,52323E-001	9,96971E-002	1,32114E+003	12	..........a
	30	31	8,02158E-001	-1,23626E+000	0,00000E+000	-9,91679E-001	-7,40488E-001	9,75860E-002	1,32137E+003	12	..........a
	31	32	7,99754E-001	-1,25633E+000	0,00000E+000	-1,00476E+000	-7,52515E-001	9,93793E-002	1,32218E+003	12	..........a
	32	33	7,97076E-001	-1,29316E+000	0,00000E+000	-1,03075E+000	-7,74563E-001	1,02293E-001	1,32227E+003	12	..........a
	33	34	8,05705E-001	-1,22115E+000	0,00000E+000	-9,83888E-001	-7,31446E-001	9,66447E-002	1,32139E+003	12	..........a
	34	35	7,97185E-001	-1,24588E+000	0,00000E+000	-9,93199E-001	-7,46249E-001	9,86762E-002	1,32145E+003	12	..........a
	35	36	7,95274E-001	-1,24426E+000	0,00000E+000	-9,89526E-001	-7,45275E-001	9,95937E-002	1,32143E+003	12	..........a
	36	37	8,06167E-001	-1,22417E+000	0,00000E+000	-9,86882E-001	-7,33249E-001	9,69011E-002	1,32132E+003	12	..........a
	37	38	7,98723E-001	-1,24567E+000	0,00000E+000	-9,94942E-001	-7,46114E-001	9,91992E-002	1,32156E+003	12	..........a
	38	39	7,95527E-001	-1,25297E+000	0,00000E+000	-9,96774E-001	-7,50496E-001	9,90539E-002	1,32197E+003	12	..........a
	39	40	8,05154E-001	-1,21816E+000	0,00000E+000	-9,80803E-001	-7,29647E-001	9,66253E-002	1,32160E+003	12	..........a
	40	41	7,98744E-001	-1,26036E+000	0,00000E+000	-1,00671E+000	-7,54919E-001	9,98156E-002	1,32187E+003	12	..........a
	41	42	7,96511E-001	-1,26044E+000	0,00000E+000	-1,00396E+000	-7,54969E-001	9,98867E-002	1,32182E+003	12	..........a
	42	43	8,05286E-001	-1,22886E+000	0,00000E+000	-9,89581E-001	-7,36063E-001	9,67639E-002	1,32190E+003	12	..........a
	43	44	7,96302E-001	-1,27339E+000	0,00000E+000	-1,01400E+000	-7,62724E-001	1,01667E-001	1,32154E+003	12	..........a
	44	45	8,00405E-001	-1,25072E+000	0,00000E+000	-1,00108E+000	-7,49155E-001	9,87130E-002	1,32118E+003	12	..........a
	45	46	8,04689E-001	-1,23796E+000	0,00000E+000	-9,96174E-001	-7,41502E-001	9,86265E-002	1,32144E+003	12	..........a
	46	47	7,96411E-001	-1,25831E+000	0,00000E+000	-1,00213E+000	-7,53689E-001	9,98458E-002	1,32152E+003	12	..........a
	47	48	7,97317E-001	-1,21037E+000	0,00000E+000	-9,65047E-001	-7,24987E-001	9,62704E-002	1,32223E+003	12	..........a
	48	49	8,01704E-001	-1,20413E+000	0,00000E+000	-9,65358E-001	-7,21263E-001	9,34665E-002	1,32219E+003	12	..........a
	49	50	7,99294E-001	-1,25160E+000	0,00000E+000	-1,00039E+000	-7,49690E-001	9,80007E-002	1,32155E+003	12	..........a
	50	51	8,01190E-001	-1,23146E+000	0,00000E+000	-9,86632E-001	-7,37619E-001	9,77535E-002	1,32127E+003	12	..........a
	51	52	8,00862E-001	-1,21370E+000	0,00000E+000	-9,72006E-001	-7,26985E-001	9,58794E-002	1,32148E+003	12	..........a
	52	53	7,97339E-001	-1,23322E+000	0,00000E+000	-9,83293E-001	-7,38669E-001	9,82066E-002	1,32127E+003	12	..........a
	53	54	8,00875E-001	-1,22181E+000	0,00000E+000	-9,78514E-001	-7,31846E-001	9,58582E-002	1,32173E+003	12	..........a
	54	55	8,01282E-001	-1,24245E+000	0,00000E+000	-9,95552E-001	-7,44193E-001	9,87201E-002	1,32247E+003	12	..........a
	55	56	7,99677E-001	-1,22938E+000	0,00000E+000	-9,83110E-001	-7,36384E-001	9,64123E-002	1,32171E+003	12	..........a
	56	57	7,99174E-001	-1,22260E+000	0,00000E+000	-9,77073E-001	-7,32307E-001	9,70033E-002	1,32174E+003	12	..........a
	57	58	7,98060E-001	-1,20665E+000	0,00000E+000	-9,62982E-001	-7,22760E-001	9,54109E-002	1,32178E+003	12	..........a
	58	59	7,99949E-001	-1,23609E+000	0,00000E+000	-9,88804E-001	-7,40397E-001	9,55696E-002	1,32130E+003	12	..........a
	59	60	8,01023E-001	-1,21124E+000	0,00000E+000	-9,70230E-001	-7,25518E-001	9,41394E-002	1,32143E+003	12	..........a
	60	61	7,93613E-001	-1,21246E+000	0,00000E+000	-9,62220E-001	-7,26250E-001	9,69722E-002	1,32193E+003	12	..........a
	61	62	7,99648E-001	-1,21245E+000	0,00000E+000	-9,69532E-001	-7,26230E-001	1,03864E-001	1,32149E+003	12	...........
	62	63	8,03752E-001	-1,20970E+000	0,00000E+000	-9,72302E-001	-7,24598E-001	1,03261E-001	1,32246E+003	12	..........a
	63	64	8,01224E-001	-1,22322E+000	0,00000E+000	-9,80075E-001	-7,32693E-001	9,65793E-002	1,32248E+003	12	..........a
	64	65	8,00119E-001	-1,23168E+000	0,00000E+000	-9,85493E-001	-7,37759E-001	9,82557E-002	1,32245E+003	12	..........a
	65	66	7,96175E-001	-1,22400E+000	0,00000E+000	-9,74517E-001	-7,33155E-001	9,75480E-002	1,32189E+003	12	..........a
	66	67	7,98523E-001	-1,21584E+000	0,00000E+000	-9,70878E-001	-7,28281E-001	1,00350E-001	1,32147E+003	12	..........a
	67	68	7,97161E-001	-1,17743E+000	0,00000E+000	-9,38600E-001	-7,05268E-001	1,00984E-001	1,32135E+003	12	...........
	68	69	8,02052E-001	-1,19653E+000	0,00000E+000	-9,59679E-001	-7,16722E-001	1,02614E-001	1,32248E+003	12	...........
	69	70	8,05519E-001	-1,20410E+000	0,00000E+000	-9,69927E-001	-7,21236E-001	1,03308E-001	1,32256E+003	12	...........
	70	71	8,02501E-001	-1,22981E+000	0,00000E+000	-9,86925E-001	-7,36636E-001	9,92227E-002	1,32256E+003	12	..........a
	71	72	7,96097E-001	-1,21730E+000	0,00000E+000	-9,69085E-001	-7,29148E-001	9,66131E-002	1,32245E+003	12	..........a
	72	73	8,00443E-001	-1,21191E+000	0,00000E+000	-9,70063E-001	-7,25921E-001	1,03590E-001	1,32190E+003	12	..........a
	73	74	7,96676E-001	-1,20261E+000	0,00000E+000	-9,58089E-001	-7,20343E-001	1,03285E-001	1,32179E+003	12	...........
	74	75	8,00200E-001	-1,20844E+000	0,00000E+000	-9,66992E-001	-7,23828E-001	1,02813E-001	1,32256E+003	12	..........a
	75	76	8,01583E-001	-1,19779E+000	0,00000E+000	-9,60130E-001	-7,17467E-001	1,02834E-001	1,32243E+003	12	...........
	76	77	7,97750E-001	-1,18170E+000	0,00000E+000	-9,42705E-001	-7,07839E-001	1,01440E-001	1,32193E+003	12	...........
	77	78	8,01690E-001	-1,18730E+000	0,00000E+000	-9,51850E-001	-7,11186E-001	1,01953E-001	1,32256E+003	12	...........
	78	79	7,96979E-001	-1,21764E+000	0,00000E+000	-9,70432E-001	-7,29355E-001	1,04547E-001	1,32256E+003	12	...........
	79	80	8,03322E-001	-1,19446E+000	0,00000E+000	-9,59537E-001	-7,15471E-001	1,02407E-001	1,32256E+003	12	...........
	80	81	7,98101E-001	-1,19417E+000	0,00000E+000	-9,53066E-001	-7,15299E-001	1,02269E-001	1,32256E+003	12	...........
	81	82	7,97954E-001	-1,18445E+000	0,00000E+000	-9,45141E-001	-7,09479E-001	1,01411E-001	1,32256E+003	12	...........
	82	83	8,03849E-001	-1,19801E+000	0,00000E+000	-9,63017E-001	-7,17601E-001	1,02592E-001	1,32256E+003	12	...........
	83	84	8,00025E-001	-1,20870E+000	0,00000E+000	-9,66988E-001	-7,23990E-001	1,03548E-001	1,32256E+003	12	...........
	84	85	7,99185E-001	-1,20203E+000	0,00000E+000	-9,60646E-001	-7,20005E-001	1,02397E-001	1,32256E+003	12	..........a
	85	86	7,94913E-001	-1,19454E+000	0,00000E+000	-9,49553E-001	-7,15523E-001	1,02234E-001	1,32256E+003	12	...........
	86	87	8,02120E-001	-1,17250E+000	0,00000E+000	-9,40488E-001	-7,02304E-001	1,00386E-001	1,32256E+003	12	...........
	87	88	8,02703E-001	-1,20138E+000	0,00000E+000	-9,64351E-001	-7,19595E-001	1,02936E-001	1,32256E+003	12	...........
	88	89	7,98740E-001	-1,18835E+000	0,00000E+000	-9,49184E-001	-7,11817E-001	1,01772E-001	1,32256E+003	12	...........
	89	90	7,96139E-001	-1,18503E+000	0,00000E+000	-9,43446E-001	-7,09822E-001	1,01399E-001	1,32256E+003	12	...........
	90	91	8,05257E-001	-1,18477E+000	0,00000E+000	-9,54042E-001	-7,09644E-001	1,01283E-001	1,32256E+003	12	...........
	91	92	7,94467E-001	-1,18872E+000	0,00000E+000	-9,44400E-001	-7,12032E-001	1,01597E-001	1,32256E+003	12	...........
	92	93	8,03595E-001	-1,17513E+000	0,00000E+000	-9,44332E-001	-7,03901E-001	1,00400E-001	1,32256E+003	12	...........
	93	94	8,00040E-001	-1,19061E+000	0,00000E+000	-9,52536E-001	-7,13159E-001	1,01765E-001	1,32256E+003	12	...........
	94	95	8,01455E-001	-1,18604E+000	0,00000E+000	-9,50555E-001	-7,10419E-001	1,01386E-001	1,32257E+003	12	...........
	95	96	7,98583E-001	-1,18465E+000	0,00000E+000	-9,46038E-001	-7,09592E-001	1,00805E-001	1,32263E+003	12	..........a
	96	97	8,00447E-001	-1,19158E+000	0,00000E+000	-9,53795E-001	-7,13745E-001	1,01899E-001	1,32262E+003	12	...........
	97	98	7,97739E-001	-1,16513E+000	0,00000E+000	-9,29473E-001	-6,97917E-001	9,96912E-002	1,32256E+003	12	...........
	98	99	7,99657E-001	-1,16305E+000	0,00000E+000	-9,30045E-001	-6,96665E-001	9,95841E-002	1,32256E+003	12	...........
	99	100	8,00332E-001	-1,16202E+000	0,00000E+000	-9,30002E-001	-6,96034E-001	9,94540E-002	1,32256E+003	12	...........
	100	101	8,00365E-001	-1,16372E+000	0,00000E+000	-9,31397E-001	-6,97058E-001	9,95055E-002	1,32256E+003	12	...........
	101	102	7,99436E-001	-1,13979E+000	0,00000E+000	-9,11190E-001	-6,82720E-001	9,73469E-002	1,32256E+003	12	...........
	102	103	8,01550E-001	-1,17635E+000	0,00000E+000	-9,42905E-001	-7,04616E-001	1,00629E-001	1,32256E+003	12	...........
	103	104	7,99700E-001	-1,16876E+000	0,00000E+000	-9,34661E-001	-7,00063E-001	1,00037E-001	1,32256E+003	12	...........
	104	105	8,00939E-001	-1,15499E+000	0,00000E+000	-9,25078E-001	-6,91829E-001	9,87926E-002	1,32256E+003	12	...........
	105	106	7,99070E-001	-1,17333E+000	0,00000E+000	-9,37575E-001	-7,02804E-001	1,00379E-001	1,32256E+003	12	...........
	106	107	7,99647E-001	-1,17342E+000	0,00000E+000	-9,38318E-001	-7,02859E-001	1,00420E-001	1,32256E+003	12	...........
	107	108	8,01357E-001	-1,17587E+000	0,00000E+000	-9,42290E-001	-7,04321E-001	1,00796E-001	1,32256E+003	12	...........
	108	109	8,00729E-001	-1,19790E+000	0,00000E+000	-9,59192E-001	-7,17538E-001	1,02826E-001	1,32256E+003	12	...........
	109	110	7,99709E-001	-1,17504E+000	0,00000E+000	-9,39691E-001	-7,03836E-001	1,00742E-001	1,32256E+003	12	...........
	110	111	7,99439E-001	-1,20815E+000	0,00000E+000	-9,65846E-001	-7,23691E-001	1,03600E-001	1,32256E+003	12	...........
	111	112	8,00532E-001	-1,18536E+000	0,00000E+000	-9,48917E-001	-7,10036E-001	1,01615E-001	1,32257E+003	12	...........
	112	113	7,99106E-001	-1,19614E+000	0,00000E+000	-9,55840E-001	-7,16474E-001	1,02465E-001	1,32262E+003	12	...........
	113	114	8,00545E-001	-1,17490E+000	0,00000E+000	-9,40559E-001	-7,03764E-001	1,00641E-001	1,32257E+003	12	...........
	114	115	8,00740E-001	-1,18627E+000	0,00000E+000	-9,49895E-001	-7,10575E-001	1,01651E-001	1,32263E+003	12	...........
	115	116	8,01055E-001	-1,19511E+000	0,00000E+000	-9,57350E-001	-7,15874E-001	1,02315E-001	1,32262E+003	12	...........
	116	117	8,00758E-001	-1,20555E+000	0,00000E+000	-9,65354E-001	-7,22107E-001	1,02874E-001	1,32257E+003	12	..........a
	117	118	7,98872E-001	-1,20126E+000	0,00000E+000	-9,59649E-001	-7,19540E-001	1,03111E-001	1,32263E+003	12	...........
	118	119	8,01547E-001	-1,20117E+000	0,00000E+000	-9,62794E-001	-7,19497E-001	1,03043E-001	1,32262E+003	12	...........
	119	120	7,98244E-001	-1,19993E+000	0,00000E+000	-9,57839E-001	-7,18732E-001	1,02848E-001	1,32257E+003	12	...........
	120	121	7,97411E-001	-1,20231E+000	0,00000E+000	-9,58733E-001	-7,20170E-001	1,03058E-001	1,32263E+003	12	...........
	121	122	7,99912E-001	-1,19044E+000	0,00000E+000	-9,52248E-001	-7,13053E-001	1,02138E-001	1,32262E+003	12	...........
	122	123	8,00201E-001	-1,20192E+000	0,00000E+000	-9,61775E-001	-7,19940E-001	1,03219E-001	1,32257E+003	12	...........
	123	124	8,00483E-001	-1,18589E+000	0,00000E+000	-9,49282E-001	-7,10332E-001	1,01823E-001	1,32262E+003	12	...........
	124	125	8,00162E-001	-1,18548E+000	0,00000E+000	-9,48573E-001	-7,10090E-001	1,01750E-001	1,32256E+003	12	...........
	125	126	8,02509E-001	-1,20242E+000	0,00000E+000	-9,64951E-001	-7,20254E-001	1,02774E-001	1,32257E+003	12	..........a
	126	127	7,98806E-001	-1,19829E+000	0,00000E+000	-9,57203E-001	-7,17777E-001	1,02879E-001	1,32263E+003	12	...........
	127	128	7,99756E-001	-1,20232E+000	0,00000E+000	-9,61561E-001	-7,20182E-001	1,02729E-001	1,32262E+003	12	..........a
	128	129	7,97796E-001	-1,17875E+000	0,00000E+000	-9,40402E-001	-7,06067E-001	1,00984E-001	1,32257E+003	12	...........
	129	130	7,99969E-001	-1,18272E+000	0,00000E+000	-9,46142E-001	-7,08447E-001	1,01168E-001	1,32263E+003	12	...........
	130	131	7,99247E-001	-1,15523E+000	0,00000E+000	-9,23315E-001	-6,91980E-001	9,87595E-002	1,32263E+003	12	...........
	131	132	8,03490E-001	-1,19420E+000	0,00000E+000	-9,59531E-001	-7,15324E-001	1,02237E-001	1,32263E+003	12	...........
	132	133	7,99616E-001	-1,19459E+000	0,00000E+000	-9,55214E-001	-7,15559E-001	1,02321E-001	1,32263E+003	12	...........
	133	134	7,99267E-001	-1,18518E+000	0,00000E+000	-9,47272E-001	-7,09909E-001	1,01457E-001	1,32263E+003	12	...........
	134	135	8,00281E-001	-1,19901E+000	0,00000E+000	-9,59541E-001	-7,18190E-001	1,02635E-001	1,32263E+003	12	...........
	135	136	7,98210E-001	-1,18981E+000	0,00000E+000	-9,49715E-001	-7,12703E-001	1,01838E-001	1,32263E+003	12	...........
	136	137	8,02658E-001	-1,18606E+000	0,00000E+000	-9,51999E-001	-7,10443E-001	1,01482E-001	1,32263E+003	12	...........
	137	138	7,96390E-001	-1,19371E+000	0,00000E+000	-9,50662E-001	-7,15015E-001	1,02157E-001	1,32263E+003	12	...........
	138	139	8,00724E-001	-1,18090E+000	0,00000E+000	-9,45577E-001	-7,07360E-001	1,01016E-001	1,32263E+003	12	...........
	139	140	7,99517E-001	-1,18119E+000	0,00000E+000	-9,44384E-001	-7,07524E-001	1,00992E-001	1,32263E+003	12	...........
	140	141	7,99602E-001	-1,18565E+000	0,00000E+000	-9,48045E-001	-7,10182E-001	1,01271E-001	1,32263E+003	12	...........
	141	142	8,02345E-001	-1,16373E+000	0,00000E+000	-9,33715E-001	-6,97075E-001	9,93604E-002	1,32263E+003	12	...........
	142	143	8,02892E-001	-1,19540E+000	0,00000E+000	-9,59779E-001	-7,16049E-001	1,02132E-001	1,32263E+003	12	...........
	143	144	7,98297E-001	-1,20023E+000	0,00000E+000	-9,58143E-001	-7,18947E-001	1,02565E-001	1,32263E+003	12	...........
	144	145	7,99747E-001	-1,20678E+000	0,00000E+000	-9,65120E-001	-7,22860E-001	1,02991E-001	1,32263E+003	12	...........
