EXPLAIN
TAG	PWR800_POTENTIOSTATIC
TITLE	LABEL	PWRPOTSTAT_ps200_zn8_paa1_v08	Test &Identifier
DATE	LABEL	12.11.2018	Date
TIME	LABEL	18:52:18	Time
NOTES	NOTES	1	&Notes...
	
PSTAT	PSTAT	IFC5000-03531	Potentiostat
CAPACITY	QUANT	1,00000E+000	Capacity (A-hr)
CELLTYPE	SELECTOR	0	&Cell Type
WORKINGCONNECTION	SELECTOR	0	&Working Lead
MAXI	QUANT	5,00000E+000	Max Current (A)
VOLTAGE	QUANT	8,00000E-001	Voltage (V)
MAXTIME	VARIABLEANDUNITS	3,60000E+003	s	1,00000E+000	hour(s)	Max Time
SAMPLETIME	QUANT	1,00000E+000	Sa&mple Period (s)
STOPTHRESH	VARIABLEANDUNITS	5,00000E+000	s	5,00000E+000	second(s)	Stop At Threshold
STOPAT1	MULTIPARAM	2	5,00000E+000	Stop At &1	|Current| > Limit	A
STOPAT2	MULTIPARAM	0	0,00000E+000	Stop At &2	None	N/A
AESBHCSelector	TOGGLE	F	Save Both Half Cells
IRCOMP	TOGGLE	F	IR Measure
EOC	QUANT	0	Open Circuit (V)
SEQUENCER	TOGGLE	TRUE	Run as Sequence
PSTATMODEL	IQUANT	53	Pstat Model
PSTATSECTION	LABEL	IFC5000-03531	Pstat Section
PSTATSERIALNO	LABEL	03531	Pstat Serial Number
CTRLMODE	IQUANT	0	Control Mode
ELECTROMETER	IQUANT	0	RE=0 or CS=1
IESTAB	IQUANT	0	I/E Stability
CASPEED	IQUANT	4	Control Amp Speed
CONVENTION	IQUANT	1	Current Convention
ICHRANGE	IQUANT	2	Ich Range
ICHRANGEMODE	TOGGLE	T	Ich Auto Range
ICHOFFSETENABLE	TOGGLE	F	Ich Offset Enable
ICHOFFSET	QUANT	0	Ich Offset (V)
ICHFILTER	IQUANT	1	Ich Filter
VCHRANGE	IQUANT	2	Vch Range
VCHRANGEMODE	TOGGLE	T	Vch Auto Range
VCHOFFSETENABLE	TOGGLE	F	Vch Offset Enable
VCHOFFSET	QUANT	0	Vch Offset (V)
VCHFILTER	IQUANT	1	Vch Filter
IERANGELOWERLIMIT	IQUANT	9	I/E Range Lower Limit
IERANGEMODE	TOGGLE	F	I/E AutoRange
IERANGE	IQUANT	12	I/E Range
ACHSELECT	IQUANT	1	Ach Select
ACHRANGE	IQUANT	2	Ach Range
ACHOFFSETENABLE	TOGGLE	F	Ach Offset Enable
ACHOFFSET	QUANT	0	Ach Offset (V)
ACHFILTER	IQUANT	1	Ach Filter
SENSECABLEID	IQUANT	14	Sense Cable ID
PWRCABLEID	IQUANT	7	Power Cable ID
DCCALDATE	LABEL	5/31/2018	DC Calibration Date
ACCALDATE	LABEL	5/15/2017	AC Calibration Date
FRAMEWORKVERSION	QUANT	7,06	Framework Version
INSTRUMENTVERSION	LABEL	4.30	Instrument Version
CURVE	TABLE	207
	Pt	T	Vf	Im	Vu	Pwr	Sig	Ach	Temp	IERange	Over
	#	s	V	A	V	W	V	V	deg C	#	bits
	0	1	8,33404E-001	-6,99981E-001	0,00000E+000	-5,83367E-001	-4,19397E-001	5,40720E-002	1,32419E+003	12	..........a
	1	2	7,99115E-001	-5,94643E-001	0,00000E+000	-4,75189E-001	-3,56319E-001	4,51411E-002	1,32301E+003	12	..........a
	2	3	7,99076E-001	-5,81821E-001	0,00000E+000	-4,64919E-001	-3,48643E-001	4,43171E-002	1,32246E+003	12	..........a
	3	4	7,99007E-001	-5,54272E-001	0,00000E+000	-4,42867E-001	-3,32125E-001	4,24397E-002	1,32230E+003	12	..........a
	4	5	8,00437E-001	-5,43577E-001	0,00000E+000	-4,35099E-001	-3,25742E-001	4,16759E-002	1,32274E+003	12	..........a
	5	6	7,98096E-001	-5,27704E-001	0,00000E+000	-4,21158E-001	-3,16234E-001	3,95459E-002	1,32376E+003	12	..........a
	6	7	8,00258E-001	-5,22866E-001	0,00000E+000	-4,18428E-001	-3,13333E-001	3,82041E-002	1,32384E+003	12	..........a
	7	8	7,98497E-001	-5,42703E-001	0,00000E+000	-4,33347E-001	-3,25195E-001	4,17525E-002	1,32386E+003	12	..........a
	8	9	8,01275E-001	-5,09621E-001	0,00000E+000	-4,08347E-001	-3,05403E-001	3,85193E-002	1,32381E+003	12	..........a
	9	10	8,01946E-001	-5,26958E-001	0,00000E+000	-4,22592E-001	-3,15788E-001	3,77897E-002	1,32381E+003	12	..........a
	10	11	7,98413E-001	-5,21561E-001	0,00000E+000	-4,16421E-001	-3,12552E-001	3,79460E-002	1,32381E+003	12	..........a
	11	12	7,99649E-001	-5,19823E-001	0,00000E+000	-4,15676E-001	-3,11502E-001	3,86895E-002	1,32381E+003	12	..........a
	12	13	7,99304E-001	-5,04978E-001	0,00000E+000	-4,03631E-001	-3,02626E-001	3,81635E-002	1,32381E+003	12	..........a
	13	14	8,00520E-001	-5,14382E-001	0,00000E+000	-4,11773E-001	-3,08263E-001	3,84120E-002	1,32381E+003	12	..........a
	14	15	8,00246E-001	-5,10478E-001	0,00000E+000	-4,08507E-001	-3,05923E-001	3,74350E-002	1,32384E+003	12	..........a
	15	16	8,01579E-001	-5,17552E-001	0,00000E+000	-4,14859E-001	-3,10142E-001	3,83273E-002	1,32389E+003	12	..........a
	16	17	7,99553E-001	-5,13490E-001	0,00000E+000	-4,10562E-001	-3,07725E-001	3,72351E-002	1,32386E+003	12	..........a
	17	18	8,01160E-001	-5,19957E-001	0,00000E+000	-4,16569E-001	-3,11589E-001	3,75684E-002	1,32384E+003	12	..........a
	18	19	7,99496E-001	-5,14188E-001	0,00000E+000	-4,11091E-001	-3,08141E-001	3,88359E-002	1,32389E+003	12	..........a
	19	20	7,98847E-001	-5,27138E-001	0,00000E+000	-4,21103E-001	-3,15889E-001	3,99120E-002	1,32386E+003	12	..........a
	20	21	7,98919E-001	-5,05727E-001	0,00000E+000	-4,04035E-001	-3,03066E-001	3,66172E-002	1,32381E+003	12	..........a
	21	22	8,03416E-001	-5,16568E-001	0,00000E+000	-4,15019E-001	-3,09567E-001	3,75551E-002	1,32384E+003	12	..........a
	22	23	7,98173E-001	-5,39815E-001	0,00000E+000	-4,30866E-001	-3,23492E-001	3,97688E-002	1,32343E+003	12	..........a
	23	24	8,00291E-001	-5,18948E-001	0,00000E+000	-4,15309E-001	-3,11001E-001	3,89698E-002	1,32251E+003	12	..........a
	24	25	8,00575E-001	-5,29222E-001	0,00000E+000	-4,23682E-001	-3,17158E-001	3,91232E-002	1,32286E+003	12	..........a
	25	26	7,99586E-001	-5,42159E-001	0,00000E+000	-4,33502E-001	-3,24898E-001	3,97964E-002	1,32384E+003	12	..........a
	26	27	7,99959E-001	-5,12386E-001	0,00000E+000	-4,09887E-001	-3,07063E-001	3,80596E-002	1,32394E+003	12	..........a
	27	28	7,99255E-001	-5,19293E-001	0,00000E+000	-4,15048E-001	-3,11203E-001	3,85273E-002	1,32394E+003	12	..........a
	28	29	8,00706E-001	-5,00720E-001	0,00000E+000	-4,00929E-001	-3,00072E-001	3,81705E-002	1,32386E+003	12	..........a
	29	30	8,00522E-001	-5,25675E-001	0,00000E+000	-4,20815E-001	-3,15032E-001	3,94040E-002	1,32381E+003	12	..........a
	30	31	7,96631E-001	-5,03878E-001	0,00000E+000	-4,01405E-001	-3,01977E-001	3,67553E-002	1,32384E+003	12	..........a
	31	32	8,00625E-001	-4,94586E-001	0,00000E+000	-3,95978E-001	-2,96409E-001	3,63405E-002	1,32389E+003	12	..........a
	32	33	8,01683E-001	-5,04696E-001	0,00000E+000	-4,04606E-001	-3,02463E-001	3,70065E-002	1,32386E+003	12	..........a
	33	34	7,99701E-001	-5,16704E-001	0,00000E+000	-4,13209E-001	-3,09657E-001	3,75137E-002	1,32381E+003	12	..........a
	34	35	8,00328E-001	-4,97624E-001	0,00000E+000	-3,98262E-001	-2,98213E-001	3,70878E-002	1,32389E+003	12	..........a
	35	36	7,99183E-001	-5,11231E-001	0,00000E+000	-4,08567E-001	-3,06359E-001	3,76206E-002	1,32394E+003	12	..........a
	36	37	8,01536E-001	-5,26460E-001	0,00000E+000	-4,21977E-001	-3,15493E-001	3,81033E-002	1,32389E+003	12	..........a
	37	38	7,98363E-001	-5,14949E-001	0,00000E+000	-4,11116E-001	-3,08600E-001	3,74975E-002	1,32364E+003	12	..........a
	38	39	8,00324E-001	-5,40460E-001	0,00000E+000	-4,32543E-001	-3,23888E-001	3,99515E-002	1,32349E+003	12	..........a
	39	40	8,00004E-001	-5,22417E-001	0,00000E+000	-4,17936E-001	-3,13066E-001	3,78785E-002	1,32331E+003	12	..........a
	40	41	8,00852E-001	-5,09009E-001	0,00000E+000	-4,07641E-001	-3,05039E-001	3,70744E-002	1,32301E+003	12	..........a
	41	42	7,97339E-001	-5,21617E-001	0,00000E+000	-4,15906E-001	-3,12590E-001	3,77305E-002	1,32384E+003	12	..........a
	42	43	8,02568E-001	-5,08881E-001	0,00000E+000	-4,08411E-001	-3,04962E-001	3,70437E-002	1,32394E+003	12	..........a
	43	44	7,97299E-001	-5,13968E-001	0,00000E+000	-4,09786E-001	-3,08001E-001	3,81491E-002	1,32351E+003	12	..........a
	44	45	8,03651E-001	-5,16370E-001	0,00000E+000	-4,14981E-001	-3,09452E-001	3,72183E-002	1,32324E+003	12	..........a
	45	46	8,00226E-001	-5,48892E-001	0,00000E+000	-4,39238E-001	-3,28915E-001	4,13520E-002	1,32394E+003	12	..........a
	46	47	7,97225E-001	-5,03532E-001	0,00000E+000	-4,01428E-001	-3,01757E-001	3,76880E-002	1,32348E+003	12	..........a
	47	48	8,00952E-001	-4,99438E-001	0,00000E+000	-4,00026E-001	-2,99309E-001	3,67077E-002	1,32316E+003	12	..........a
	48	49	7,99792E-001	-5,17190E-001	0,00000E+000	-4,13645E-001	-3,09935E-001	3,97432E-002	1,32384E+003	12	..........a
	49	50	8,00001E-001	-5,13190E-001	0,00000E+000	-4,10553E-001	-3,07538E-001	3,76661E-002	1,32389E+003	12	..........a
	50	51	7,98875E-001	-5,28799E-001	0,00000E+000	-4,22444E-001	-3,16892E-001	3,86183E-002	1,32331E+003	12	..........a
	51	52	8,01456E-001	-5,13721E-001	0,00000E+000	-4,11725E-001	-3,07877E-001	3,87198E-002	1,32304E+003	12	..........a
	52	53	8,01408E-001	-5,08442E-001	0,00000E+000	-4,07469E-001	-3,04707E-001	3,80356E-002	1,32389E+003	12	..........a
	53	54	7,97948E-001	-5,22797E-001	0,00000E+000	-4,17165E-001	-3,13301E-001	3,85870E-002	1,32394E+003	12	..........a
	54	55	8,00051E-001	-5,22932E-001	0,00000E+000	-4,18373E-001	-3,13379E-001	3,80718E-002	1,32394E+003	12	..........a
	55	56	8,01643E-001	-5,21203E-001	0,00000E+000	-4,17819E-001	-3,12347E-001	3,78469E-002	1,32394E+003	12	..........a
	56	57	7,99444E-001	-5,10841E-001	0,00000E+000	-4,08389E-001	-3,06131E-001	3,66044E-002	1,32394E+003	12	..........a
	57	58	7,98978E-001	-5,06656E-001	0,00000E+000	-4,04807E-001	-3,03629E-001	3,70598E-002	1,32394E+003	12	..........a
	58	59	7,99957E-001	-5,17470E-001	0,00000E+000	-4,13954E-001	-3,10108E-001	3,81157E-002	1,32341E+003	12	..........a
	59	60	8,00651E-001	-4,95283E-001	0,00000E+000	-3,96549E-001	-2,96834E-001	3,77850E-002	1,32248E+003	12	..........a
	60	61	7,99373E-001	-5,22206E-001	0,00000E+000	-4,17437E-001	-3,12942E-001	3,86889E-002	1,32299E+003	12	..........a
	61	62	7,99543E-001	-5,13102E-001	0,00000E+000	-4,10247E-001	-3,07495E-001	3,75460E-002	1,32394E+003	12	..........a
	62	63	8,01307E-001	-5,02062E-001	0,00000E+000	-4,02306E-001	-3,00882E-001	3,59585E-002	1,32394E+003	12	..........a
	63	64	7,97812E-001	-5,01188E-001	0,00000E+000	-3,99854E-001	-3,00342E-001	3,82056E-002	1,32394E+003	12	..........a
	64	65	8,01743E-001	-5,05416E-001	0,00000E+000	-4,05214E-001	-3,02887E-001	3,79320E-002	1,32398E+003	12	..........a
	65	66	7,98911E-001	-5,00192E-001	0,00000E+000	-3,99609E-001	-2,99753E-001	3,62212E-002	1,32398E+003	12	..........a
	66	67	8,00341E-001	-4,92674E-001	0,00000E+000	-3,94307E-001	-2,95246E-001	3,68532E-002	1,32384E+003	12	..........a
	67	68	8,01968E-001	-4,97556E-001	0,00000E+000	-3,99024E-001	-2,98180E-001	3,56189E-002	1,32374E+003	12	..........a
	68	69	7,98219E-001	-5,15877E-001	0,00000E+000	-4,11782E-001	-3,09143E-001	3,77088E-002	1,32389E+003	12	..........a
	69	70	8,00484E-001	-4,91568E-001	0,00000E+000	-3,93493E-001	-2,94604E-001	3,62474E-002	1,32389E+003	12	..........a
	70	71	8,00363E-001	-4,98203E-001	0,00000E+000	-3,98743E-001	-2,98570E-001	3,60754E-002	1,32394E+003	12	..........a
	71	72	7,98274E-001	-4,96605E-001	0,00000E+000	-3,96427E-001	-2,97610E-001	3,66863E-002	1,32398E+003	12	..........a
	72	73	8,01424E-001	-5,07114E-001	0,00000E+000	-4,06413E-001	-3,03914E-001	3,67810E-002	1,32394E+003	12	..........a
	73	74	8,00685E-001	-5,10780E-001	0,00000E+000	-4,08974E-001	-3,06103E-001	3,68000E-002	1,32343E+003	12	..........a
	74	75	7,99434E-001	-5,04856E-001	0,00000E+000	-4,03599E-001	-3,02567E-001	3,75147E-002	1,32323E+003	12	..........a
	75	76	7,98041E-001	-5,21876E-001	0,00000E+000	-4,16479E-001	-3,12747E-001	3,83788E-002	1,32398E+003	12	..........a
	76	77	8,02539E-001	-4,90749E-001	0,00000E+000	-3,93846E-001	-2,94116E-001	3,61117E-002	1,32333E+003	12	..........a
	77	78	7,99628E-001	-5,05478E-001	0,00000E+000	-4,04195E-001	-3,02927E-001	3,69188E-002	1,32303E+003	12	..........a
	78	79	7,99254E-001	-5,08196E-001	0,00000E+000	-4,06178E-001	-3,04546E-001	3,69754E-002	1,32336E+003	12	..........a
	79	80	8,01085E-001	-5,06941E-001	0,00000E+000	-4,06103E-001	-3,03792E-001	3,71913E-002	1,32308E+003	12	..........a
	80	81	7,98752E-001	-5,33147E-001	0,00000E+000	-4,25852E-001	-3,19483E-001	3,92041E-002	1,32394E+003	12	..........a
	81	82	8,00519E-001	-5,18534E-001	0,00000E+000	-4,15096E-001	-3,10727E-001	3,83600E-002	1,32394E+003	12	..........a
	82	83	8,00790E-001	-5,25375E-001	0,00000E+000	-4,20715E-001	-3,14845E-001	3,83771E-002	1,32398E+003	12	..........a
	83	84	7,99349E-001	-5,10808E-001	0,00000E+000	-4,08314E-001	-3,06113E-001	3,76640E-002	1,32398E+003	12	..........a
	84	85	8,01262E-001	-5,33785E-001	0,00000E+000	-4,27702E-001	-3,19872E-001	3,92068E-002	1,32394E+003	12	..........a
	85	86	7,99507E-001	-5,32839E-001	0,00000E+000	-4,26008E-001	-3,19326E-001	4,01270E-002	1,32397E+003	12	..........a
	86	87	7,98395E-001	-4,94982E-001	0,00000E+000	-3,95191E-001	-2,96651E-001	3,70562E-002	1,32356E+003	12	..........a
	87	88	7,99632E-001	-4,93415E-001	0,00000E+000	-3,94550E-001	-2,95723E-001	3,67669E-002	1,32324E+003	12	..........a
	88	89	7,99357E-001	-5,16270E-001	0,00000E+000	-4,12684E-001	-3,09389E-001	3,76175E-002	1,32394E+003	12	..........a
	89	90	8,01227E-001	-5,29857E-001	0,00000E+000	-4,24536E-001	-3,17518E-001	3,84599E-002	1,32398E+003	12	..........a
	90	91	8,00363E-001	-5,22200E-001	0,00000E+000	-4,17949E-001	-3,12935E-001	3,80365E-002	1,32336E+003	12	..........a
	91	92	8,00873E-001	-5,13270E-001	0,00000E+000	-4,11064E-001	-3,07589E-001	3,78165E-002	1,32304E+003	12	..........a
	92	93	8,00478E-001	-5,19708E-001	0,00000E+000	-4,16015E-001	-3,11451E-001	3,82022E-002	1,32394E+003	12	..........a
	93	94	7,99934E-001	-5,17743E-001	0,00000E+000	-4,14161E-001	-3,10267E-001	3,76763E-002	1,32398E+003	12	..........a
	94	95	8,01304E-001	-5,21802E-001	0,00000E+000	-4,18122E-001	-3,12699E-001	3,90492E-002	1,32401E+003	12	..........a
	95	96	7,97341E-001	-5,17440E-001	0,00000E+000	-4,12576E-001	-3,10089E-001	3,85333E-002	1,32406E+003	12	..........a
	96	97	7,98652E-001	-5,20710E-001	0,00000E+000	-4,15866E-001	-3,12046E-001	3,83507E-002	1,32404E+003	12	..........a
	97	98	8,01036E-001	-5,26134E-001	0,00000E+000	-4,21452E-001	-3,15297E-001	4,05284E-002	1,32398E+003	12	..........a
	98	99	8,01142E-001	-5,21542E-001	0,00000E+000	-4,17829E-001	-3,12552E-001	3,87137E-002	1,32401E+003	12	..........a
	99	100	8,00467E-001	-5,22706E-001	0,00000E+000	-4,18409E-001	-3,13247E-001	3,86723E-002	1,32338E+003	12	..........a
	100	101	7,96910E-001	-5,18292E-001	0,00000E+000	-4,13032E-001	-3,10616E-001	3,79880E-002	1,32268E+003	12	..........a
	101	102	8,01114E-001	-4,93419E-001	0,00000E+000	-3,95285E-001	-2,95714E-001	3,64598E-002	1,32351E+003	12	..........a
	102	103	7,99773E-001	-4,92467E-001	0,00000E+000	-3,93862E-001	-2,95145E-001	3,64174E-002	1,32406E+003	12	..........a
	103	104	8,01709E-001	-5,12966E-001	0,00000E+000	-4,11250E-001	-3,07412E-001	3,73840E-002	1,32404E+003	12	..........a
	104	105	7,98635E-001	-4,97738E-001	0,00000E+000	-3,97511E-001	-2,98318E-001	3,79297E-002	1,32398E+003	12	..........a
	105	106	8,00018E-001	-5,13722E-001	0,00000E+000	-4,10987E-001	-3,07884E-001	3,93870E-002	1,32398E+003	12	..........a
	106	107	8,00179E-001	-4,86522E-001	0,00000E+000	-3,89304E-001	-2,91566E-001	3,44583E-002	1,32398E+003	12	..........a
	107	108	8,00545E-001	-5,06802E-001	0,00000E+000	-4,05718E-001	-3,03715E-001	3,67065E-002	1,32398E+003	12	..........a
	108	109	8,01411E-001	-5,15482E-001	0,00000E+000	-4,13113E-001	-3,08920E-001	3,83327E-002	1,32401E+003	12	..........a
	109	110	7,98732E-001	-5,18054E-001	0,00000E+000	-4,13787E-001	-3,10463E-001	3,76687E-002	1,32358E+003	12	..........a
	110	111	8,00397E-001	-5,25049E-001	0,00000E+000	-4,20248E-001	-3,14654E-001	3,88087E-002	1,32275E+003	12	..........a
	111	112	7,98156E-001	-5,04503E-001	0,00000E+000	-4,02672E-001	-3,02344E-001	3,76471E-002	1,32273E+003	12	..........a
	112	113	8,01793E-001	-5,07076E-001	0,00000E+000	-4,06570E-001	-3,03881E-001	3,71059E-002	1,32338E+003	12	..........a
	113	114	7,99544E-001	-5,11578E-001	0,00000E+000	-4,09029E-001	-3,06598E-001	3,82309E-002	1,32398E+003	12	..........a
	114	115	8,00207E-001	-5,19032E-001	0,00000E+000	-4,15333E-001	-3,11044E-001	3,77366E-002	1,32398E+003	12	..........a
	115	116	8,00029E-001	-5,23425E-001	0,00000E+000	-4,18755E-001	-3,13678E-001	3,85044E-002	1,32341E+003	12	..........a
	116	117	7,98415E-001	-5,18720E-001	0,00000E+000	-4,14154E-001	-3,10861E-001	3,82801E-002	1,32314E+003	12	..........a
	117	118	8,01591E-001	-5,11355E-001	0,00000E+000	-4,09898E-001	-3,06463E-001	3,76520E-002	1,32398E+003	12	..........a
	118	119	7,98838E-001	-5,14292E-001	0,00000E+000	-4,10836E-001	-3,08204E-001	3,71806E-002	1,32398E+003	12	..........a
	119	120	8,00727E-001	-5,14655E-001	0,00000E+000	-4,12098E-001	-3,08411E-001	3,77849E-002	1,32398E+003	12	..........a
	120	121	7,99616E-001	-5,28170E-001	0,00000E+000	-4,22333E-001	-3,16505E-001	3,91256E-002	1,32398E+003	12	..........a
	121	122	8,01735E-001	-5,37855E-001	0,00000E+000	-4,31217E-001	-3,22312E-001	4,01690E-002	1,32378E+003	12	..........a
	122	123	7,98971E-001	-5,48534E-001	0,00000E+000	-4,38263E-001	-3,28706E-001	4,08292E-002	1,32310E+003	12	..........a
	123	124	8,02480E-001	-5,04546E-001	0,00000E+000	-4,04888E-001	-3,02382E-001	3,62719E-002	1,32286E+003	12	..........a
	124	125	7,97841E-001	-5,07002E-001	0,00000E+000	-4,04507E-001	-3,03837E-001	3,67028E-002	1,32361E+003	12	..........a
	125	126	8,01832E-001	-5,21062E-001	0,00000E+000	-4,17804E-001	-3,12258E-001	3,82188E-002	1,32404E+003	12	..........a
	126	127	7,97861E-001	-5,22753E-001	0,00000E+000	-4,17085E-001	-3,13273E-001	3,82152E-002	1,32348E+003	12	..........a
	127	128	7,98529E-001	-5,07057E-001	0,00000E+000	-4,04900E-001	-3,03885E-001	3,76150E-002	1,32326E+003	12	..........a
	128	129	8,01006E-001	-5,11471E-001	0,00000E+000	-4,09692E-001	-3,06510E-001	3,72324E-002	1,32406E+003	12	..........a
	129	130	8,03738E-001	-5,07948E-001	0,00000E+000	-4,08257E-001	-3,04440E-001	3,90800E-002	1,32346E+003	12	..........a
	130	131	7,95766E-001	-5,07637E-001	0,00000E+000	-4,03960E-001	-3,04217E-001	3,85380E-002	1,32316E+003	12	..........a
	131	132	8,01544E-001	-5,28492E-001	0,00000E+000	-4,23609E-001	-3,16701E-001	3,94360E-002	1,32404E+003	12	..........a
	132	133	7,98640E-001	-5,31920E-001	0,00000E+000	-4,24813E-001	-3,18772E-001	3,86867E-002	1,32401E+003	12	..........a
	133	134	8,00574E-001	-5,05376E-001	0,00000E+000	-4,04591E-001	-3,02894E-001	3,89649E-002	1,32404E+003	12	..........a
	134	135	8,01191E-001	-5,13376E-001	0,00000E+000	-4,11312E-001	-3,07660E-001	3,75426E-002	1,32398E+003	12	..........a
	135	136	7,98892E-001	-5,08053E-001	0,00000E+000	-4,05879E-001	-3,04461E-001	3,62554E-002	1,32401E+003	12	..........a
	136	137	7,99593E-001	-5,15511E-001	0,00000E+000	-4,12199E-001	-3,08925E-001	3,83909E-002	1,32404E+003	12	..........a
	137	138	8,00427E-001	-5,22763E-001	0,00000E+000	-4,18434E-001	-3,13270E-001	3,79758E-002	1,32348E+003	12	..........a
	138	139	8,01472E-001	-5,20456E-001	0,00000E+000	-4,17131E-001	-3,11892E-001	3,76185E-002	1,32268E+003	12	..........a
	139	140	8,02139E-001	-5,34277E-001	0,00000E+000	-4,28564E-001	-3,20172E-001	3,86563E-002	1,32321E+003	12	..........a
	140	141	7,97257E-001	-5,45647E-001	0,00000E+000	-4,35021E-001	-3,26952E-001	4,10225E-002	1,32406E+003	12	..........a
	141	142	8,01051E-001	-5,29386E-001	0,00000E+000	-4,24065E-001	-3,17242E-001	3,92014E-002	1,32406E+003	12	..........a
	142	143	7,97459E-001	-5,35545E-001	0,00000E+000	-4,27075E-001	-3,20943E-001	3,99608E-002	1,32406E+003	12	..........a
	143	144	8,01097E-001	-5,32338E-001	0,00000E+000	-4,26455E-001	-3,19011E-001	3,98629E-002	1,32404E+003	12	..........a
	144	145	8,00100E-001	-5,12082E-001	0,00000E+000	-4,09717E-001	-3,06887E-001	3,70250E-002	1,32401E+003	12	..........a
	145	146	7,99086E-001	-5,21064E-001	0,00000E+000	-4,16375E-001	-3,12249E-001	3,79135E-002	1,32404E+003	12	..........a
	146	147	7,99353E-001	-5,16393E-001	0,00000E+000	-4,12780E-001	-3,09470E-001	3,90935E-002	1,32401E+003	12	..........a
	147	148	8,01567E-001	-5,10435E-001	0,00000E+000	-4,09148E-001	-3,05900E-001	3,81602E-002	1,32409E+003	12	..........a
	148	149	8,00718E-001	-5,18391E-001	0,00000E+000	-4,15085E-001	-3,10663E-001	3,78441E-002	1,32412E+003	12	..........a
	149	150	7,99776E-001	-5,20136E-001	0,00000E+000	-4,15992E-001	-3,11703E-001	3,81869E-002	1,32406E+003	12	..........a
	150	151	7,99396E-001	-5,12133E-001	0,00000E+000	-4,09397E-001	-3,06908E-001	3,70493E-002	1,32358E+003	12	..........a
	151	152	7,99194E-001	-5,33274E-001	0,00000E+000	-4,26189E-001	-3,19574E-001	3,95655E-002	1,32336E+003	12	..........a
	152	153	7,99607E-001	-5,41536E-001	0,00000E+000	-4,33016E-001	-3,24517E-001	4,05369E-002	1,32406E+003	12	..........a
	153	154	8,02346E-001	-5,26329E-001	0,00000E+000	-4,22299E-001	-3,15418E-001	3,88789E-002	1,32346E+003	12	..........a
	154	155	7,99664E-001	-5,22432E-001	0,00000E+000	-4,17770E-001	-3,13066E-001	3,95178E-002	1,32314E+003	12	..........a
	155	156	7,99093E-001	-5,34325E-001	0,00000E+000	-4,26975E-001	-3,20193E-001	3,89652E-002	1,32401E+003	12	..........a
	156	157	7,99034E-001	-5,31141E-001	0,00000E+000	-4,24399E-001	-3,18300E-001	4,05528E-002	1,32406E+003	12	..........a
	157	158	8,01212E-001	-5,26555E-001	0,00000E+000	-4,21882E-001	-3,15555E-001	3,93631E-002	1,32389E+003	12	..........a
	158	159	7,99892E-001	-5,39287E-001	0,00000E+000	-4,31371E-001	-3,23177E-001	4,00544E-002	1,32382E+003	12	..........a
	159	160	7,98962E-001	-5,24268E-001	0,00000E+000	-4,18870E-001	-3,14182E-001	3,95582E-002	1,32368E+003	12	..........a
	160	161	8,02816E-001	-5,35836E-001	0,00000E+000	-4,30178E-001	-3,21112E-001	3,92320E-002	1,32321E+003	12	..........a
	161	162	7,99360E-001	-5,23006E-001	0,00000E+000	-4,18070E-001	-3,13401E-001	4,03516E-002	1,32361E+003	12	..........a
	162	163	7,98887E-001	-5,26342E-001	0,00000E+000	-4,20488E-001	-3,15419E-001	3,88855E-002	1,32406E+003	12	..........a
	163	164	8,02833E-001	-5,26899E-001	0,00000E+000	-4,23012E-001	-3,15759E-001	3,94824E-002	1,32406E+003	12	..........a
	164	165	7,96341E-001	-5,32752E-001	0,00000E+000	-4,24253E-001	-3,19240E-001	3,95647E-002	1,32406E+003	12	..........a
	165	166	8,01968E-001	-5,33461E-001	0,00000E+000	-4,27819E-001	-3,19673E-001	3,95615E-002	1,32348E+003	12	..........a
	166	167	8,00630E-001	-5,44939E-001	0,00000E+000	-4,36295E-001	-3,26550E-001	4,06168E-002	1,32270E+003	12	..........a
	167	168	7,99681E-001	-5,38882E-001	0,00000E+000	-4,30934E-001	-3,22928E-001	4,03907E-002	1,32311E+003	12	..........a
	168	169	7,99214E-001	-5,21918E-001	0,00000E+000	-4,17124E-001	-3,12773E-001	3,81411E-002	1,32343E+003	12	..........a
	169	170	8,00481E-001	-5,25939E-001	0,00000E+000	-4,21004E-001	-3,15182E-001	3,88896E-002	1,32326E+003	12	..........a
	170	171	8,00578E-001	-5,33258E-001	0,00000E+000	-4,26914E-001	-3,19559E-001	3,95148E-002	1,32293E+003	12	..........a
	171	172	7,99233E-001	-5,30262E-001	0,00000E+000	-4,23803E-001	-3,17768E-001	3,86101E-002	1,32253E+003	12	..........a
	172	173	8,01698E-001	-5,28263E-001	0,00000E+000	-4,23508E-001	-3,16572E-001	3,86415E-002	1,32329E+003	12	..........a
	173	174	8,00663E-001	-5,50482E-001	0,00000E+000	-4,40751E-001	-3,29875E-001	4,15855E-002	1,32412E+003	12	..........a
	174	175	7,97273E-001	-5,37710E-001	0,00000E+000	-4,28702E-001	-3,22228E-001	4,01866E-002	1,32373E+003	12	..........a
	175	176	7,98030E-001	-5,40366E-001	0,00000E+000	-4,31228E-001	-3,23810E-001	3,97542E-002	1,32356E+003	12	..........a
	176	177	8,02560E-001	-5,18969E-001	0,00000E+000	-4,16503E-001	-3,11011E-001	3,71566E-002	1,32406E+003	12	..........a
	177	178	8,00442E-001	-5,36316E-001	0,00000E+000	-4,29290E-001	-3,21389E-001	3,94025E-002	1,32409E+003	12	..........a
	178	179	7,99335E-001	-5,32671E-001	0,00000E+000	-4,25783E-001	-3,19215E-001	3,89431E-002	1,32412E+003	12	..........a
	179	180	8,01166E-001	-5,37004E-001	0,00000E+000	-4,30229E-001	-3,21802E-001	4,03354E-002	1,32353E+003	12	..........a
	180	181	8,02109E-001	-5,53522E-001	0,00000E+000	-4,43985E-001	-3,31694E-001	4,12633E-002	1,32266E+003	12	..........a
	181	182	7,97478E-001	-5,51560E-001	0,00000E+000	-4,39856E-001	-3,30521E-001	4,16386E-002	1,32268E+003	12	..........a
	182	183	7,98388E-001	-5,34941E-001	0,00000E+000	-4,27090E-001	-3,20558E-001	4,00523E-002	1,32265E+003	12	..........a
	183	184	8,01629E-001	-5,42378E-001	0,00000E+000	-4,34786E-001	-3,25029E-001	4,07314E-002	1,32251E+003	12	..........a
	184	185	7,99418E-001	-5,62185E-001	0,00000E+000	-4,49421E-001	-3,36877E-001	4,25599E-002	1,32329E+003	12	..........a
	185	186	7,99689E-001	-5,36273E-001	0,00000E+000	-4,28852E-001	-3,21375E-001	3,95510E-002	1,32341E+003	12	..........a
	186	187	8,00189E-001	-5,46390E-001	0,00000E+000	-4,37215E-001	-3,27424E-001	4,09395E-002	1,32314E+003	12	..........a
	187	188	7,99031E-001	-5,36135E-001	0,00000E+000	-4,28388E-001	-3,21292E-001	3,95738E-002	1,32336E+003	12	..........a
	188	189	8,01815E-001	-5,30994E-001	0,00000E+000	-4,25759E-001	-3,18211E-001	3,92394E-002	1,32308E+003	12	..........a
	189	190	7,99106E-001	-5,35868E-001	0,00000E+000	-4,28215E-001	-3,21118E-001	3,97570E-002	1,32404E+003	12	..........a
	190	191	7,99548E-001	-5,49262E-001	0,00000E+000	-4,39161E-001	-3,29140E-001	4,10556E-002	1,32381E+003	12	..........a
	191	192	8,01283E-001	-5,50113E-001	0,00000E+000	-4,40797E-001	-3,29650E-001	4,18500E-002	1,32293E+003	12	..........a
	192	193	7,98535E-001	-5,32278E-001	0,00000E+000	-4,25043E-001	-3,18969E-001	4,00399E-002	1,32276E+003	12	..........a
	193	194	7,97426E-001	-5,12732E-001	0,00000E+000	-4,08866E-001	-3,07266E-001	3,77965E-002	1,32301E+003	12	..........a
	194	195	8,03426E-001	-5,24887E-001	0,00000E+000	-4,21708E-001	-3,14546E-001	3,83363E-002	1,32319E+003	12	..........a
	195	196	8,00257E-001	-5,46750E-001	0,00000E+000	-4,37540E-001	-3,27628E-001	4,27400E-002	1,32414E+003	12	..........a
	196	197	8,00056E-001	-5,15035E-001	0,00000E+000	-4,12057E-001	-3,08646E-001	3,70007E-002	1,32412E+003	12	..........a
	197	198	8,00248E-001	-5,41442E-001	0,00000E+000	-4,33288E-001	-3,24464E-001	4,04844E-002	1,32406E+003	12	..........a
	198	199	8,01424E-001	-5,58841E-001	0,00000E+000	-4,47869E-001	-3,34876E-001	4,19806E-002	1,32346E+003	12	..........a
	199	200	7,98529E-001	-5,64401E-001	0,00000E+000	-4,50691E-001	-3,38215E-001	4,23280E-002	1,32316E+003	12	..........a
	200	201	8,00919E-001	-5,57726E-001	0,00000E+000	-4,46693E-001	-3,34214E-001	4,23057E-002	1,32376E+003	12	..........a
	201	202	8,00387E-001	-5,63533E-001	0,00000E+000	-4,51044E-001	-3,37694E-001	4,24210E-002	1,32328E+003	12	..........a
	202	203	7,98105E-001	-5,31395E-001	0,00000E+000	-4,24109E-001	-3,18449E-001	3,96836E-002	1,32303E+003	12	..........a
	203	204	7,99745E-001	-5,49894E-001	0,00000E+000	-4,39775E-001	-3,29523E-001	4,27183E-002	1,32326E+003	12	..........a
	204	205	7,99984E-001	-5,46875E-001	0,00000E+000	-4,37491E-001	-3,27711E-001	4,13314E-002	1,32406E+003	12	..........a
	205	206	7,99958E-001	-5,24520E-001	0,00000E+000	-4,19594E-001	-3,14335E-001	3,92091E-002	1,32341E+003	12	..........a
	206	207	8,01643E-001	-5,24824E-001	0,00000E+000	-4,20722E-001	-3,14508E-001	3,83026E-002	1,32311E+003	12	..........a
