EXPLAIN
TAG	PWR800_POTENTIOSTATIC
TITLE	LABEL	PWRPOTSTAT_ps100_zn12_paa1_v08	Test &Identifier
DATE	LABEL	12.11.2018	Date
TIME	LABEL	19:18:45	Time
NOTES	NOTES	1	&Notes...
	
PSTAT	PSTAT	IFC5000-03531	Potentiostat
CAPACITY	QUANT	1,00000E+000	Capacity (A-hr)
CELLTYPE	SELECTOR	0	&Cell Type
WORKINGCONNECTION	SELECTOR	0	&Working Lead
MAXI	QUANT	5,00000E+000	Max Current (A)
VOLTAGE	QUANT	8,00000E-001	Voltage (V)
MAXTIME	VARIABLEANDUNITS	3,60000E+003	s	1,00000E+000	hour(s)	Max Time
SAMPLETIME	QUANT	1,00000E+000	Sa&mple Period (s)
STOPTHRESH	VARIABLEANDUNITS	5,00000E+000	s	5,00000E+000	second(s)	Stop At Threshold
STOPAT1	MULTIPARAM	2	5,00000E+000	Stop At &1	|Current| > Limit	A
STOPAT2	MULTIPARAM	0	0,00000E+000	Stop At &2	None	N/A
AESBHCSelector	TOGGLE	F	Save Both Half Cells
IRCOMP	TOGGLE	F	IR Measure
EOC	QUANT	0	Open Circuit (V)
SEQUENCER	TOGGLE	TRUE	Run as Sequence
PSTATMODEL	IQUANT	53	Pstat Model
PSTATSECTION	LABEL	IFC5000-03531	Pstat Section
PSTATSERIALNO	LABEL	03531	Pstat Serial Number
CTRLMODE	IQUANT	0	Control Mode
ELECTROMETER	IQUANT	0	RE=0 or CS=1
IESTAB	IQUANT	0	I/E Stability
CASPEED	IQUANT	4	Control Amp Speed
CONVENTION	IQUANT	1	Current Convention
ICHRANGE	IQUANT	2	Ich Range
ICHRANGEMODE	TOGGLE	T	Ich Auto Range
ICHOFFSETENABLE	TOGGLE	F	Ich Offset Enable
ICHOFFSET	QUANT	0	Ich Offset (V)
ICHFILTER	IQUANT	1	Ich Filter
VCHRANGE	IQUANT	2	Vch Range
VCHRANGEMODE	TOGGLE	T	Vch Auto Range
VCHOFFSETENABLE	TOGGLE	F	Vch Offset Enable
VCHOFFSET	QUANT	0	Vch Offset (V)
VCHFILTER	IQUANT	1	Vch Filter
IERANGELOWERLIMIT	IQUANT	9	I/E Range Lower Limit
IERANGEMODE	TOGGLE	F	I/E AutoRange
IERANGE	IQUANT	12	I/E Range
ACHSELECT	IQUANT	1	Ach Select
ACHRANGE	IQUANT	2	Ach Range
ACHOFFSETENABLE	TOGGLE	F	Ach Offset Enable
ACHOFFSET	QUANT	0	Ach Offset (V)
ACHFILTER	IQUANT	1	Ach Filter
SENSECABLEID	IQUANT	14	Sense Cable ID
PWRCABLEID	IQUANT	7	Power Cable ID
DCCALDATE	LABEL	5/31/2018	DC Calibration Date
ACCALDATE	LABEL	5/15/2017	AC Calibration Date
FRAMEWORKVERSION	QUANT	7,06	Framework Version
INSTRUMENTVERSION	LABEL	4.30	Instrument Version
CURVE	TABLE	78
	Pt	T	Vf	Im	Vu	Pwr	Sig	Ach	Temp	IERange	Over
	#	s	V	A	V	W	V	V	deg C	#	bits
	0	1	8,13103E-001	-1,18082E+000	0,00000E+000	-9,60125E-001	-7,07354E-001	7,12430E-002	1,32556E+003	12	.........va
	1	2	8,00366E-001	-1,19754E+000	0,00000E+000	-9,58472E-001	-7,17420E-001	2,66541E-002	1,32484E+003	12	..........a
	2	3	7,99949E-001	-1,16679E+000	0,00000E+000	-9,33376E-001	-6,99015E-001	2,51732E-002	1,32608E+003	12	..........a
	3	4	7,99877E-001	-1,11053E+000	0,00000E+000	-8,88286E-001	-6,65332E-001	2,59319E-002	1,32617E+003	12	..........a
	4	5	8,01130E-001	-1,08771E+000	0,00000E+000	-8,71399E-001	-6,51706E-001	3,61340E-002	1,32608E+003	12	..........a
	5	6	7,98921E-001	-1,10612E+000	0,00000E+000	-8,83702E-001	-6,62729E-001	3,70887E-002	1,32625E+003	12	..........a
	6	7	8,01187E-001	-1,09765E+000	0,00000E+000	-8,79424E-001	-6,57652E-001	3,67101E-002	1,32617E+003	12	..........a
	7	8	7,99952E-001	-1,07929E+000	0,00000E+000	-8,63376E-001	-6,46674E-001	3,61782E-002	1,32625E+003	12	..........a
	8	9	7,99872E-001	-1,09987E+000	0,00000E+000	-8,79752E-001	-6,58997E-001	3,65592E-002	1,32625E+003	12	..........a
	9	10	8,01475E-001	-1,10359E+000	0,00000E+000	-8,84498E-001	-6,61215E-001	3,74153E-002	1,32625E+003	12	..........a
	10	11	7,97963E-001	-1,09408E+000	0,00000E+000	-8,73037E-001	-6,55534E-001	3,62037E-002	1,32617E+003	12	..........a
	11	12	8,01696E-001	-1,06990E+000	0,00000E+000	-8,57737E-001	-6,41055E-001	3,57693E-002	1,32617E+003	12	..........a
	12	13	7,97898E-001	-1,12257E+000	0,00000E+000	-8,95693E-001	-6,72576E-001	3,74758E-002	1,32625E+003	12	..........a
	13	14	8,01384E-001	-1,10091E+000	0,00000E+000	-8,82251E-001	-6,59613E-001	3,66984E-002	1,32617E+003	12	..........a
	14	15	7,98586E-001	-1,11254E+000	0,00000E+000	-8,88457E-001	-6,66573E-001	3,72787E-002	1,32625E+003	12	..........a
	15	16	8,01295E-001	-1,08237E+000	0,00000E+000	-8,67299E-001	-6,48521E-001	3,59310E-002	1,32617E+003	12	..........a
	16	17	7,98706E-001	-1,07350E+000	0,00000E+000	-8,57409E-001	-6,43202E-001	3,58142E-002	1,32625E+003	12	..........a
	17	18	8,01133E-001	-1,07354E+000	0,00000E+000	-8,60052E-001	-6,43238E-001	3,56348E-002	1,32617E+003	12	..........a
	18	19	8,00056E-001	-1,08394E+000	0,00000E+000	-8,67217E-001	-6,49465E-001	3,63671E-002	1,32633E+003	12	..........a
	19	20	7,99698E-001	-1,09282E+000	0,00000E+000	-8,73922E-001	-6,54778E-001	3,63659E-002	1,32625E+003	12	..........a
	20	21	8,01578E-001	-1,07929E+000	0,00000E+000	-8,65135E-001	-6,46672E-001	3,62487E-002	1,32625E+003	12	..........a
	21	22	7,97831E-001	-1,10798E+000	0,00000E+000	-8,83984E-001	-6,63862E-001	3,66583E-002	1,32625E+003	12	..........a
	22	23	8,01766E-001	-1,07692E+000	0,00000E+000	-8,63436E-001	-6,45262E-001	3,61098E-002	1,32617E+003	12	..........a
	23	24	7,97679E-001	-1,09593E+000	0,00000E+000	-8,74201E-001	-6,56645E-001	3,63156E-002	1,32625E+003	12	..........a
	24	25	8,01789E-001	-1,10357E+000	0,00000E+000	-8,84830E-001	-6,61210E-001	3,68705E-002	1,32625E+003	12	..........a
	25	26	7,98325E-001	-1,08851E+000	0,00000E+000	-8,68981E-001	-6,52192E-001	3,64095E-002	1,32625E+003	12	..........a
	26	27	8,01427E-001	-1,09109E+000	0,00000E+000	-8,74429E-001	-6,53740E-001	3,65906E-002	1,32625E+003	12	..........a
	27	28	7,98743E-001	-1,08832E+000	0,00000E+000	-8,69287E-001	-6,52084E-001	3,65034E-002	1,32625E+003	12	..........a
	28	29	8,01160E-001	-1,08903E+000	0,00000E+000	-8,72486E-001	-6,52507E-001	3,63081E-002	1,32617E+003	12	..........a
	29	30	8,00099E-001	-1,09669E+000	0,00000E+000	-8,77463E-001	-6,57093E-001	3,69927E-002	1,32625E+003	12	..........a
	30	31	7,99713E-001	-1,09661E+000	0,00000E+000	-8,76971E-001	-6,57054E-001	3,65206E-002	1,32625E+003	12	..........a
	31	32	8,01482E-001	-1,05721E+000	0,00000E+000	-8,47336E-001	-6,33461E-001	3,53551E-002	1,32625E+003	12	..........a
	32	33	7,98010E-001	-1,09736E+000	0,00000E+000	-8,75707E-001	-6,57519E-001	3,62167E-002	1,32625E+003	12	..........a
	33	34	8,01643E-001	-1,06491E+000	0,00000E+000	-8,53675E-001	-6,38064E-001	3,55759E-002	1,32625E+003	12	..........a
	34	35	7,97753E-001	-1,10358E+000	0,00000E+000	-8,80387E-001	-6,61215E-001	3,68979E-002	1,32625E+003	12	..........a
	35	36	8,01583E-001	-1,06039E+000	0,00000E+000	-8,49988E-001	-6,35342E-001	3,50417E-002	1,32617E+003	12	..........a
	36	37	7,98251E-001	-1,07010E+000	0,00000E+000	-8,54209E-001	-6,41178E-001	3,56028E-002	1,32625E+003	12	..........a
	37	38	8,01535E-001	-1,07014E+000	0,00000E+000	-8,57753E-001	-6,41193E-001	3,55443E-002	1,32617E+003	12	..........a
	38	39	7,98795E-001	-1,08981E+000	0,00000E+000	-8,70536E-001	-6,52994E-001	3,66593E-002	1,32625E+003	12	..........a
	39	40	8,01308E-001	-1,06701E+000	0,00000E+000	-8,55003E-001	-6,39327E-001	3,55129E-002	1,32625E+003	12	..........a
	40	41	7,99749E-001	-1,06382E+000	0,00000E+000	-8,50787E-001	-6,37414E-001	3,55568E-002	1,32633E+003	12	..........a
	41	42	7,99803E-001	-1,08854E+000	0,00000E+000	-8,70615E-001	-6,52210E-001	3,61717E-002	1,32625E+003	12	..........a
	42	43	8,01586E-001	-1,07514E+000	0,00000E+000	-8,61816E-001	-6,44197E-001	3,61513E-002	1,32625E+003	12	..........a
	43	44	7,97920E-001	-1,10296E+000	0,00000E+000	-8,80073E-001	-6,60849E-001	3,64604E-002	1,32625E+003	12	..........a
	44	45	8,01628E-001	-1,08245E+000	0,00000E+000	-8,67726E-001	-6,48573E-001	3,61120E-002	1,32625E+003	12	..........a
	45	46	7,97832E-001	-1,09590E+000	0,00000E+000	-8,74341E-001	-6,56619E-001	3,64660E-002	1,32625E+003	12	..........a
	46	47	8,01506E-001	-1,08819E+000	0,00000E+000	-8,72191E-001	-6,52008E-001	3,64850E-002	1,32625E+003	12	..........a
	47	48	7,98609E-001	-1,10317E+000	0,00000E+000	-8,81004E-001	-6,60987E-001	3,70639E-002	1,32625E+003	12	..........a
	48	49	8,01146E-001	-1,10066E+000	0,00000E+000	-8,81792E-001	-6,59473E-001	3,68915E-002	1,32625E+003	12	..........a
	49	50	7,98956E-001	-1,09012E+000	0,00000E+000	-8,70962E-001	-6,53160E-001	3,63730E-002	1,32625E+003	12	..........a
	50	51	8,01226E-001	-1,08950E+000	0,00000E+000	-8,72935E-001	-6,52792E-001	3,63482E-002	1,32625E+003	12	..........a
	51	52	7,99941E-001	-1,07196E+000	0,00000E+000	-8,57504E-001	-6,42293E-001	3,59793E-002	1,32625E+003	12	..........a
	52	53	7,99817E-001	-1,07567E+000	0,00000E+000	-8,60342E-001	-6,44517E-001	3,56177E-002	1,32633E+003	12	..........a
	53	54	8,01452E-001	-1,07562E+000	0,00000E+000	-8,62055E-001	-6,44477E-001	3,62212E-002	1,32625E+003	12	..........a
	54	55	7,98032E-001	-1,13334E+000	0,00000E+000	-9,04439E-001	-6,79039E-001	3,77749E-002	1,32625E+003	12	..........a
	55	56	8,01700E-001	-1,08839E+000	0,00000E+000	-8,72563E-001	-6,52138E-001	3,66184E-002	1,32625E+003	12	..........a
	56	57	7,97759E-001	-1,13031E+000	0,00000E+000	-9,01714E-001	-6,77241E-001	3,79148E-002	1,32625E+003	12	..........a
	57	58	8,01422E-001	-1,08776E+000	0,00000E+000	-8,71751E-001	-6,51746E-001	3,64294E-002	1,32625E+003	12	..........a
	58	59	7,98676E-001	-1,09706E+000	0,00000E+000	-8,76198E-001	-6,57328E-001	3,68316E-002	1,32633E+003	12	..........a
	59	60	8,01021E-001	-1,12131E+000	0,00000E+000	-8,98190E-001	-6,71841E-001	3,77558E-002	1,32625E+003	12	..........a
	60	61	7,99121E-001	-1,07684E+000	0,00000E+000	-8,60524E-001	-6,45216E-001	3,59721E-002	1,32633E+003	12	..........a
	61	62	8,01016E-001	-1,10628E+000	0,00000E+000	-8,86148E-001	-6,62843E-001	3,70456E-002	1,32625E+003	12	..........a
	62	63	7,99978E-001	-1,09273E+000	0,00000E+000	-8,74163E-001	-6,54717E-001	3,68225E-002	1,32625E+003	12	..........a
	63	64	7,99811E-001	-1,11204E+000	0,00000E+000	-8,89420E-001	-6,66287E-001	3,71149E-002	1,32625E+003	12	..........a
	64	65	8,01508E-001	-1,08605E+000	0,00000E+000	-8,70476E-001	-6,50726E-001	3,67957E-002	1,32625E+003	12	..........a
	65	66	7,97766E-001	-1,08817E+000	0,00000E+000	-8,68105E-001	-6,52011E-001	3,60655E-002	1,32625E+003	12	..........a
	66	67	8,01890E-001	-1,07360E+000	0,00000E+000	-8,60905E-001	-6,43286E-001	3,59451E-002	1,32625E+003	12	..........a
	67	68	7,97583E-001	-1,09520E+000	0,00000E+000	-8,73512E-001	-6,56218E-001	3,64503E-002	1,32633E+003	12	..........a
	68	69	8,01386E-001	-1,06988E+000	0,00000E+000	-8,57391E-001	-6,41050E-001	3,56394E-002	1,32625E+003	12	..........a
	69	70	7,98661E-001	-1,09569E+000	0,00000E+000	-8,75084E-001	-6,56507E-001	3,66968E-002	1,32633E+003	12	..........a
	70	71	8,01005E-001	-1,07475E+000	0,00000E+000	-8,60877E-001	-6,43962E-001	3,57428E-002	1,32625E+003	12	..........a
	71	72	7,99255E-001	-1,05991E+000	0,00000E+000	-8,47140E-001	-6,35089E-001	3,55316E-002	1,32633E+003	12	..........a
	72	73	8,00882E-001	-1,06324E+000	0,00000E+000	-8,51529E-001	-6,37084E-001	3,51939E-002	1,32625E+003	12	..........a
	73	74	8,00153E-001	-1,06017E+000	0,00000E+000	-8,48302E-001	-6,35225E-001	3,54991E-002	1,32633E+003	12	..........a
	74	75	7,99799E-001	-1,10110E+000	0,00000E+000	-8,80659E-001	-6,59754E-001	3,65985E-002	1,32625E+003	12	..........a
	75	76	8,01624E-001	-1,07336E+000	0,00000E+000	-8,60427E-001	-6,43127E-001	3,61769E-002	1,32625E+003	12	..........a
	76	77	7,97908E-001	-1,10170E+000	0,00000E+000	-8,79054E-001	-6,60112E-001	3,64557E-002	1,32625E+003	12	..........a
	77	78	8,01647E-001	-1,07173E+000	0,00000E+000	-8,59151E-001	-6,42173E-001	3,58959E-002	1,32625E+003	12	..........a
