EXPLAIN
TAG	PWR800_POTENTIOSTATIC
TITLE	LABEL	PWRPOTSTAT_ps50_zn12_paa1_v08	Test &Identifier
DATE	LABEL	12.11.2018	Date
TIME	LABEL	19:10:13	Time
NOTES	NOTES	1	&Notes...
	
PSTAT	PSTAT	IFC5000-03531	Potentiostat
CAPACITY	QUANT	1,00000E+000	Capacity (A-hr)
CELLTYPE	SELECTOR	0	&Cell Type
WORKINGCONNECTION	SELECTOR	0	&Working Lead
MAXI	QUANT	5,00000E+000	Max Current (A)
VOLTAGE	QUANT	8,00000E-001	Voltage (V)
MAXTIME	VARIABLEANDUNITS	3,60000E+003	s	1,00000E+000	hour(s)	Max Time
SAMPLETIME	QUANT	1,00000E+000	Sa&mple Period (s)
STOPTHRESH	VARIABLEANDUNITS	5,00000E+000	s	5,00000E+000	second(s)	Stop At Threshold
STOPAT1	MULTIPARAM	2	5,00000E+000	Stop At &1	|Current| > Limit	A
STOPAT2	MULTIPARAM	0	0,00000E+000	Stop At &2	None	N/A
AESBHCSelector	TOGGLE	F	Save Both Half Cells
IRCOMP	TOGGLE	F	IR Measure
EOC	QUANT	0	Open Circuit (V)
SEQUENCER	TOGGLE	TRUE	Run as Sequence
PSTATMODEL	IQUANT	53	Pstat Model
PSTATSECTION	LABEL	IFC5000-03531	Pstat Section
PSTATSERIALNO	LABEL	03531	Pstat Serial Number
CTRLMODE	IQUANT	0	Control Mode
ELECTROMETER	IQUANT	0	RE=0 or CS=1
IESTAB	IQUANT	0	I/E Stability
CASPEED	IQUANT	4	Control Amp Speed
CONVENTION	IQUANT	1	Current Convention
ICHRANGE	IQUANT	2	Ich Range
ICHRANGEMODE	TOGGLE	T	Ich Auto Range
ICHOFFSETENABLE	TOGGLE	F	Ich Offset Enable
ICHOFFSET	QUANT	0	Ich Offset (V)
ICHFILTER	IQUANT	1	Ich Filter
VCHRANGE	IQUANT	2	Vch Range
VCHRANGEMODE	TOGGLE	T	Vch Auto Range
VCHOFFSETENABLE	TOGGLE	F	Vch Offset Enable
VCHOFFSET	QUANT	0	Vch Offset (V)
VCHFILTER	IQUANT	1	Vch Filter
IERANGELOWERLIMIT	IQUANT	9	I/E Range Lower Limit
IERANGEMODE	TOGGLE	F	I/E AutoRange
IERANGE	IQUANT	12	I/E Range
ACHSELECT	IQUANT	1	Ach Select
ACHRANGE	IQUANT	2	Ach Range
ACHOFFSETENABLE	TOGGLE	F	Ach Offset Enable
ACHOFFSET	QUANT	0	Ach Offset (V)
ACHFILTER	IQUANT	1	Ach Filter
SENSECABLEID	IQUANT	14	Sense Cable ID
PWRCABLEID	IQUANT	7	Power Cable ID
DCCALDATE	LABEL	5/31/2018	DC Calibration Date
ACCALDATE	LABEL	5/15/2017	AC Calibration Date
FRAMEWORKVERSION	QUANT	7,06	Framework Version
INSTRUMENTVERSION	LABEL	4.30	Instrument Version
CURVE	TABLE	210
	Pt	T	Vf	Im	Vu	Pwr	Sig	Ach	Temp	IERange	Over
	#	s	V	A	V	W	V	V	deg C	#	bits
	0	1	8,55809E-001	-1,88330E+000	0,00000E+000	-1,61174E+000	-1,19244E+000	1,48406E-001	1,32472E+003	12	..chih..iva
	1	2	7,53673E-001	-2,62852E+000	0,00000E+000	-1,98105E+000	-1,57423E+000	2,12296E-001	1,32350E+003	12	.........v.
	2	3	8,00103E-001	-2,37949E+000	0,00000E+000	-1,90384E+000	-1,42511E+000	1,92551E-001	1,32395E+003	12	...........
	3	4	7,99847E-001	-2,28994E+000	0,00000E+000	-1,83160E+000	-1,37150E+000	1,85821E-001	1,32456E+003	12	...........
	4	5	7,99237E-001	-2,31095E+000	0,00000E+000	-1,84700E+000	-1,38408E+000	1,87933E-001	1,32461E+003	12	...........
	5	6	8,00335E-001	-2,28311E+000	0,00000E+000	-1,82726E+000	-1,36742E+000	1,85943E-001	1,32460E+003	12	...........
	6	7	8,00065E-001	-2,28191E+000	0,00000E+000	-1,82568E+000	-1,36669E+000	1,85977E-001	1,32456E+003	12	...........
	7	8	7,99580E-001	-2,28488E+000	0,00000E+000	-1,82695E+000	-1,36847E+000	1,86272E-001	1,32456E+003	12	...........
	8	9	8,00002E-001	-2,26962E+000	0,00000E+000	-1,81570E+000	-1,35934E+000	1,85105E-001	1,32456E+003	12	...........
	9	10	7,99958E-001	-2,26833E+000	0,00000E+000	-1,81457E+000	-1,35857E+000	1,85152E-001	1,32456E+003	12	...........
	10	11	8,00537E-001	-2,30370E+000	0,00000E+000	-1,84419E+000	-1,37975E+000	1,88117E-001	1,32456E+003	12	...........
	11	12	7,99464E-001	-2,28825E+000	0,00000E+000	-1,82937E+000	-1,37049E+000	1,86931E-001	1,32456E+003	12	...........
	12	13	8,00639E-001	-2,22649E+000	0,00000E+000	-1,78261E+000	-1,33351E+000	1,82011E-001	1,32461E+003	12	...........
	13	14	7,99408E-001	-2,22063E+000	0,00000E+000	-1,77519E+000	-1,33000E+000	1,81620E-001	1,32465E+003	12	...........
	14	15	7,99626E-001	-2,21675E+000	0,00000E+000	-1,77257E+000	-1,32768E+000	1,81352E-001	1,32465E+003	12	...........
	15	16	8,00379E-001	-2,25122E+000	0,00000E+000	-1,80183E+000	-1,34832E+000	1,84213E-001	1,32465E+003	12	...........
	16	17	8,00470E-001	-2,24051E+000	0,00000E+000	-1,79346E+000	-1,34191E+000	1,83460E-001	1,32460E+003	12	...........
	17	18	7,99329E-001	-2,23615E+000	0,00000E+000	-1,78742E+000	-1,33930E+000	1,83187E-001	1,32456E+003	12	...........
	18	19	8,00569E-001	-2,23832E+000	0,00000E+000	-1,79193E+000	-1,34060E+000	1,83416E-001	1,32456E+003	12	...........
	19	20	8,00666E-001	-2,18210E+000	0,00000E+000	-1,74713E+000	-1,30694E+000	1,78906E-001	1,32456E+003	12	...........
	20	21	7,99555E-001	-2,22430E+000	0,00000E+000	-1,77845E+000	-1,33221E+000	1,82437E-001	1,32456E+003	12	...........
	21	22	7,99192E-001	-2,21960E+000	0,00000E+000	-1,77389E+000	-1,32940E+000	1,82105E-001	1,32461E+003	12	...........
	22	23	8,01225E-001	-2,18915E+000	0,00000E+000	-1,75400E+000	-1,31116E+000	1,79729E-001	1,32465E+003	12	...........
	23	24	7,98990E-001	-2,21364E+000	0,00000E+000	-1,76868E+000	-1,32582E+000	1,81788E-001	1,32465E+003	12	...........
	24	25	8,00494E-001	-2,19609E+000	0,00000E+000	-1,75796E+000	-1,31532E+000	1,80330E-001	1,32460E+003	12	...........
	25	26	7,99533E-001	-2,21310E+000	0,00000E+000	-1,76944E+000	-1,32550E+000	1,81718E-001	1,32468E+003	12	...........
	26	27	8,00439E-001	-2,14237E+000	0,00000E+000	-1,71484E+000	-1,28316E+000	1,75893E-001	1,32468E+003	12	...........
	27	28	7,99923E-001	-2,18445E+000	0,00000E+000	-1,74739E+000	-1,30834E+000	1,79386E-001	1,32465E+003	12	...........
	28	29	8,00348E-001	-2,15527E+000	0,00000E+000	-1,72497E+000	-1,29088E+000	1,76973E-001	1,32465E+003	12	...........
	29	30	7,99150E-001	-2,15909E+000	0,00000E+000	-1,72544E+000	-1,29317E+000	1,77245E-001	1,32465E+003	12	...........
	30	31	8,00106E-001	-2,16645E+000	0,00000E+000	-1,73339E+000	-1,29757E+000	1,77903E-001	1,32465E+003	12	...........
	31	32	7,99975E-001	-2,13579E+000	0,00000E+000	-1,70857E+000	-1,27921E+000	1,75434E-001	1,32471E+003	12	...........
	32	33	7,99930E-001	-2,10056E+000	0,00000E+000	-1,68030E+000	-1,25814E+000	1,72562E-001	1,32468E+003	12	...........
	33	34	8,00019E-001	-2,09258E+000	0,00000E+000	-1,67410E+000	-1,25334E+000	1,71948E-001	1,32465E+003	12	...........
	34	35	7,99999E-001	-2,12460E+000	0,00000E+000	-1,69968E+000	-1,27252E+000	1,74568E-001	1,32471E+003	12	...........
	35	36	8,00249E-001	-2,09936E+000	0,00000E+000	-1,68001E+000	-1,25742E+000	1,72515E-001	1,32468E+003	12	...........
	36	37	8,00105E-001	-2,10121E+000	0,00000E+000	-1,68119E+000	-1,25853E+000	1,72623E-001	1,32465E+003	12	...........
	37	38	7,99625E-001	-2,08400E+000	0,00000E+000	-1,66642E+000	-1,24823E+000	1,71247E-001	1,32465E+003	12	...........
	38	39	8,01076E-001	-2,07578E+000	0,00000E+000	-1,66286E+000	-1,24328E+000	1,70494E-001	1,32465E+003	12	...........
	39	40	8,00348E-001	-2,08402E+000	0,00000E+000	-1,66795E+000	-1,24823E+000	1,71244E-001	1,32465E+003	12	...........
	40	41	7,99925E-001	-2,11898E+000	0,00000E+000	-1,69502E+000	-1,26916E+000	1,74235E-001	1,32465E+003	12	...........
	41	42	7,98737E-001	-2,12833E+000	0,00000E+000	-1,69998E+000	-1,27474E+000	1,75015E-001	1,32465E+003	12	...........
	42	43	7,99265E-001	-2,08013E+000	0,00000E+000	-1,66257E+000	-1,24590E+000	1,71025E-001	1,32465E+003	12	...........
	43	44	8,01289E-001	-2,05274E+000	0,00000E+000	-1,64484E+000	-1,22950E+000	1,68696E-001	1,32465E+003	12	...........
	44	45	8,00478E-001	-2,05357E+000	0,00000E+000	-1,64384E+000	-1,23000E+000	1,68637E-001	1,32471E+003	12	...........
	45	46	7,99030E-001	-2,09742E+000	0,00000E+000	-1,67590E+000	-1,25626E+000	1,72228E-001	1,32468E+003	12	...........
	46	47	8,00980E-001	-2,06155E+000	0,00000E+000	-1,65126E+000	-1,23477E+000	1,69270E-001	1,32471E+003	12	...........
	47	48	7,99021E-001	-2,06329E+000	0,00000E+000	-1,64861E+000	-1,23582E+000	1,69409E-001	1,32475E+003	12	...........
	48	49	7,99944E-001	-2,05466E+000	0,00000E+000	-1,64362E+000	-1,23066E+000	1,68736E-001	1,32475E+003	12	...........
	49	50	7,99486E-001	-2,06363E+000	0,00000E+000	-1,64984E+000	-1,23601E+000	1,69498E-001	1,32468E+003	12	...........
	50	51	8,01088E-001	-1,99586E+000	0,00000E+000	-1,59886E+000	-1,19546E+000	1,63964E-001	1,32465E+003	12	...........
	51	52	7,99406E-001	-2,02235E+000	0,00000E+000	-1,61668E+000	-1,21132E+000	1,66192E-001	1,32471E+003	12	...........
	52	53	8,00532E-001	-1,98749E+000	0,00000E+000	-1,59105E+000	-1,19044E+000	1,63390E-001	1,32475E+003	12	...........
	53	54	7,99528E-001	-2,02539E+000	0,00000E+000	-1,61935E+000	-1,21313E+000	1,66541E-001	1,32468E+003	12	...........
	54	55	8,00941E-001	-1,99480E+000	0,00000E+000	-1,59772E+000	-1,19483E+000	1,63965E-001	1,32475E+003	12	...........
	55	56	7,98770E-001	-2,02600E+000	0,00000E+000	-1,61831E+000	-1,21353E+000	1,66524E-001	1,32478E+003	12	...........
	56	57	8,01384E-001	-1,99533E+000	0,00000E+000	-1,59903E+000	-1,19515E+000	1,63936E-001	1,32475E+003	12	...........
	57	58	8,00172E-001	-2,00859E+000	0,00000E+000	-1,60722E+000	-1,20307E+000	1,65068E-001	1,32475E+003	12	...........
	58	59	7,99616E-001	-2,01180E+000	0,00000E+000	-1,60867E+000	-1,20500E+000	1,65432E-001	1,32475E+003	12	...........
	59	60	7,99023E-001	-1,97336E+000	0,00000E+000	-1,57676E+000	-1,18200E+000	1,62212E-001	1,32475E+003	12	...........
	60	61	8,00003E-001	-2,00843E+000	0,00000E+000	-1,60675E+000	-1,20301E+000	1,65187E-001	1,32475E+003	12	...........
	61	62	7,99602E-001	-1,95435E+000	0,00000E+000	-1,56270E+000	-1,17062E+000	1,60680E-001	1,32475E+003	12	...........
	62	63	8,00901E-001	-1,94305E+000	0,00000E+000	-1,55619E+000	-1,16385E+000	1,59780E-001	1,32475E+003	12	...........
	63	64	8,00883E-001	-1,93731E+000	0,00000E+000	-1,55156E+000	-1,16039E+000	1,59289E-001	1,32478E+003	12	...........
	64	65	7,99720E-001	-1,95283E+000	0,00000E+000	-1,56172E+000	-1,16971E+000	1,60530E-001	1,32482E+003	12	...........
	65	66	7,99822E-001	-1,91492E+000	0,00000E+000	-1,53159E+000	-1,14700E+000	1,57496E-001	1,32482E+003	12	...........
	66	67	7,98957E-001	-1,94390E+000	0,00000E+000	-1,55309E+000	-1,16437E+000	1,59814E-001	1,32482E+003	12	...........
	67	68	8,00637E-001	-1,91009E+000	0,00000E+000	-1,52929E+000	-1,14411E+000	1,57037E-001	1,32478E+003	12	...........
	68	69	8,00830E-001	-1,91963E+000	0,00000E+000	-1,53730E+000	-1,14983E+000	1,57832E-001	1,32475E+003	12	...........
	69	70	7,99074E-001	-1,87873E+000	0,00000E+000	-1,50124E+000	-1,12533E+000	1,54372E-001	1,32478E+003	12	...........
	70	71	7,99617E-001	-1,86980E+000	0,00000E+000	-1,49512E+000	-1,11997E+000	1,53582E-001	1,32478E+003	12	...........
	71	72	8,01050E-001	-1,84843E+000	0,00000E+000	-1,48069E+000	-1,10722E+000	1,51840E-001	1,32475E+003	12	...........
	72	73	7,98943E-001	-1,86256E+000	0,00000E+000	-1,48808E+000	-1,11565E+000	1,52979E-001	1,32478E+003	12	...........
	73	74	7,99973E-001	-1,88544E+000	0,00000E+000	-1,50830E+000	-1,12938E+000	1,54913E-001	1,32478E+003	12	...........
	74	75	8,00419E-001	-1,86104E+000	0,00000E+000	-1,48961E+000	-1,11476E+000	1,52812E-001	1,32475E+003	12	...........
	75	76	7,99516E-001	-1,81107E+000	0,00000E+000	-1,44798E+000	-1,08485E+000	1,48659E-001	1,32483E+003	12	...........
	76	77	8,01221E-001	-1,81646E+000	0,00000E+000	-1,45539E+000	-1,08806E+000	1,49081E-001	1,32481E+003	12	...........
	77	78	7,98844E-001	-1,87483E+000	0,00000E+000	-1,49770E+000	-1,12302E+000	1,53962E-001	1,32478E+003	12	...........
	78	79	8,01099E-001	-1,83897E+000	0,00000E+000	-1,47319E+000	-1,10153E+000	1,50945E-001	1,32482E+003	12	...........
	79	80	7,98462E-001	-1,82508E+000	0,00000E+000	-1,45725E+000	-1,09323E+000	1,49788E-001	1,32482E+003	12	...........
	80	81	8,01028E-001	-1,79304E+000	0,00000E+000	-1,43628E+000	-1,07403E+000	1,47105E-001	1,32482E+003	12	...........
	81	82	8,00394E-001	-1,78459E+000	0,00000E+000	-1,42837E+000	-1,06898E+000	1,46411E-001	1,32482E+003	12	...........
	82	83	7,98967E-001	-1,84796E+000	0,00000E+000	-1,47646E+000	-1,10693E+000	1,51580E-001	1,32478E+003	12	...........
	83	84	8,01036E-001	-1,79053E+000	0,00000E+000	-1,43428E+000	-1,07253E+000	1,46828E-001	1,32478E+003	12	...........
	84	85	7,98389E-001	-1,80126E+000	0,00000E+000	-1,43811E+000	-1,07896E+000	1,47732E-001	1,32482E+003	12	...........
	85	86	8,00619E-001	-1,81560E+000	0,00000E+000	-1,45360E+000	-1,08755E+000	1,48895E-001	1,32482E+003	12	...........
	86	87	7,99988E-001	-1,81065E+000	0,00000E+000	-1,44850E+000	-1,08458E+000	1,48513E-001	1,32482E+003	12	...........
	87	88	8,00822E-001	-1,79570E+000	0,00000E+000	-1,43804E+000	-1,07563E+000	1,47300E-001	1,32482E+003	12	...........
	88	89	7,99975E-001	-1,76368E+000	0,00000E+000	-1,41090E+000	-1,05649E+000	1,44728E-001	1,32482E+003	12	...........
	89	90	8,00178E-001	-1,76419E+000	0,00000E+000	-1,41166E+000	-1,05678E+000	1,44787E-001	1,32482E+003	12	...........
	90	91	7,99246E-001	-1,79738E+000	0,00000E+000	-1,43655E+000	-1,07665E+000	1,47429E-001	1,32482E+003	12	...........
	91	92	7,99380E-001	-1,81065E+000	0,00000E+000	-1,44740E+000	-1,08460E+000	1,48478E-001	1,32482E+003	12	...........
	92	93	8,01013E-001	-1,80436E+000	0,00000E+000	-1,44532E+000	-1,08080E+000	1,47957E-001	1,32482E+003	12	...........
	93	94	8,00363E-001	-1,80390E+000	0,00000E+000	-1,44377E+000	-1,08055E+000	1,47897E-001	1,32482E+003	12	...........
	94	95	7,98590E-001	-1,76834E+000	0,00000E+000	-1,41218E+000	-1,05927E+000	1,45020E-001	1,32482E+003	12	...........
	95	96	8,00955E-001	-1,80329E+000	0,00000E+000	-1,44436E+000	-1,08020E+000	1,47855E-001	1,32482E+003	12	...........
	96	97	8,00418E-001	-1,77839E+000	0,00000E+000	-1,42346E+000	-1,06528E+000	1,45794E-001	1,32482E+003	12	...........
	97	98	7,99371E-001	-1,83001E+000	0,00000E+000	-1,46286E+000	-1,09620E+000	1,49946E-001	1,32482E+003	12	...........
	98	99	7,99475E-001	-1,80903E+000	0,00000E+000	-1,44628E+000	-1,08364E+000	1,48194E-001	1,32482E+003	12	...........
	99	100	8,00983E-001	-1,79213E+000	0,00000E+000	-1,43546E+000	-1,07349E+000	1,46897E-001	1,32482E+003	12	...........
	100	101	8,00190E-001	-1,82885E+000	0,00000E+000	-1,46343E+000	-1,09550E+000	1,49883E-001	1,32486E+003	12	...........
	101	102	7,98868E-001	-1,85775E+000	0,00000E+000	-1,48409E+000	-1,11279E+000	1,52232E-001	1,32485E+003	12	...........
	102	103	8,00783E-001	-1,79798E+000	0,00000E+000	-1,43979E+000	-1,07700E+000	1,47297E-001	1,32482E+003	12	...........
	103	104	8,00347E-001	-1,85059E+000	0,00000E+000	-1,48112E+000	-1,10848E+000	1,51535E-001	1,32486E+003	12	...........
	104	105	7,98515E-001	-1,84484E+000	0,00000E+000	-1,47313E+000	-1,10505E+000	1,51016E-001	1,32485E+003	12	...........
	105	106	8,01502E-001	-1,81480E+000	0,00000E+000	-1,45457E+000	-1,08707E+000	1,48501E-001	1,32486E+003	12	...........
	106	107	7,99466E-001	-1,85650E+000	0,00000E+000	-1,48421E+000	-1,11207E+000	1,51914E-001	1,32490E+003	12	...........
	107	108	7,99461E-001	-1,88730E+000	0,00000E+000	-1,50883E+000	-1,13047E+000	1,54453E-001	1,32490E+003	12	...........
	108	109	8,01421E-001	-1,85161E+000	0,00000E+000	-1,48392E+000	-1,10910E+000	1,51558E-001	1,32485E+003	12	...........
	109	110	7,99321E-001	-1,84611E+000	0,00000E+000	-1,47563E+000	-1,10581E+000	1,51106E-001	1,32482E+003	12	...........
	110	111	7,99324E-001	-1,84142E+000	0,00000E+000	-1,47189E+000	-1,10300E+000	1,50705E-001	1,32486E+003	12	...........
	111	112	8,01391E-001	-1,81905E+000	0,00000E+000	-1,45777E+000	-1,08960E+000	1,48811E-001	1,32485E+003	12	...........
	112	113	7,98616E-001	-1,90696E+000	0,00000E+000	-1,52293E+000	-1,14223E+000	1,56008E-001	1,32482E+003	12	...........
	113	114	8,01189E-001	-1,84806E+000	0,00000E+000	-1,48064E+000	-1,10699E+000	1,51113E-001	1,32486E+003	12	...........
	114	115	7,99091E-001	-1,84360E+000	0,00000E+000	-1,47320E+000	-1,10430E+000	1,50739E-001	1,32490E+003	12	...........
	115	116	8,01117E-001	-1,82711E+000	0,00000E+000	-1,46373E+000	-1,09444E+000	1,49455E-001	1,32490E+003	12	...........
	116	117	7,99071E-001	-1,86277E+000	0,00000E+000	-1,48849E+000	-1,11579E+000	1,52382E-001	1,32485E+003	12	...........
	117	118	7,99588E-001	-1,84711E+000	0,00000E+000	-1,47693E+000	-1,10644E+000	1,51135E-001	1,32486E+003	12	...........
	118	119	8,01333E-001	-1,82296E+000	0,00000E+000	-1,46080E+000	-1,09195E+000	1,49195E-001	1,32490E+003	12	...........
	119	120	7,99593E-001	-1,85691E+000	0,00000E+000	-1,48477E+000	-1,11227E+000	1,52017E-001	1,32490E+003	12	...........
	120	121	7,98980E-001	-1,88325E+000	0,00000E+000	-1,50468E+000	-1,12805E+000	1,54155E-001	1,32490E+003	12	...........
	121	122	8,01363E-001	-1,82829E+000	0,00000E+000	-1,46512E+000	-1,09516E+000	1,49670E-001	1,32490E+003	12	...........
	122	123	7,99073E-001	-1,86753E+000	0,00000E+000	-1,49230E+000	-1,11863E+000	1,52928E-001	1,32485E+003	12	...........
	123	124	7,99594E-001	-1,85568E+000	0,00000E+000	-1,48379E+000	-1,11154E+000	1,51952E-001	1,32493E+003	12	...........
	124	125	8,01374E-001	-1,83663E+000	0,00000E+000	-1,47183E+000	-1,10015E+000	1,50404E-001	1,32488E+003	12	...........
	125	126	7,99433E-001	-1,85872E+000	0,00000E+000	-1,48592E+000	-1,11337E+000	1,52271E-001	1,32486E+003	12	...........
	126	127	8,00183E-001	-1,83258E+000	0,00000E+000	-1,46640E+000	-1,09772E+000	1,50057E-001	1,32496E+003	12	...........
	127	128	7,98182E-001	-1,89162E+000	0,00000E+000	-1,50986E+000	-1,13308E+000	1,54963E-001	1,32493E+003	12	...........
	128	129	8,00896E-001	-1,82302E+000	0,00000E+000	-1,46005E+000	-1,09199E+000	1,49332E-001	1,32490E+003	12	...........
	129	130	7,99563E-001	-1,85209E+000	0,00000E+000	-1,48086E+000	-1,10939E+000	1,51793E-001	1,32490E+003	12	...........
	130	131	8,01557E-001	-1,85928E+000	0,00000E+000	-1,49031E+000	-1,11370E+000	1,52381E-001	1,32490E+003	12	...........
	131	132	7,99048E-001	-1,88781E+000	0,00000E+000	-1,50845E+000	-1,13078E+000	1,54699E-001	1,32490E+003	12	...........
	132	133	7,99676E-001	-1,88652E+000	0,00000E+000	-1,50860E+000	-1,13001E+000	1,54525E-001	1,32490E+003	12	...........
	133	134	7,99872E-001	-1,87885E+000	0,00000E+000	-1,50284E+000	-1,12544E+000	1,53979E-001	1,32490E+003	12	...........
	134	135	8,01632E-001	-1,83302E+000	0,00000E+000	-1,46940E+000	-1,09798E+000	1,50188E-001	1,32496E+003	12	...........
	135	136	7,98625E-001	-1,89791E+000	0,00000E+000	-1,51572E+000	-1,13683E+000	1,55565E-001	1,32493E+003	12	...........
	136	137	8,00942E-001	-1,86491E+000	0,00000E+000	-1,49369E+000	-1,11707E+000	1,52785E-001	1,32490E+003	12	...........
	137	138	7,99074E-001	-1,87776E+000	0,00000E+000	-1,50047E+000	-1,12475E+000	1,53869E-001	1,32496E+003	12	...........
	138	139	7,99869E-001	-1,86477E+000	0,00000E+000	-1,49157E+000	-1,11698E+000	1,52730E-001	1,32500E+003	12	...........
	139	140	8,00726E-001	-1,91244E+000	0,00000E+000	-1,53134E+000	-1,14551E+000	1,56653E-001	1,32500E+003	12	...........
	140	141	7,99392E-001	-1,87314E+000	0,00000E+000	-1,49738E+000	-1,12201E+000	1,53312E-001	1,32500E+003	12	...........
	141	142	7,99773E-001	-1,89718E+000	0,00000E+000	-1,51732E+000	-1,13639E+000	1,55279E-001	1,32493E+003	12	...........
	142	143	7,99501E-001	-1,91227E+000	0,00000E+000	-1,52886E+000	-1,14541E+000	1,56582E-001	1,32496E+003	12	...........
	143	144	8,01765E-001	-1,88709E+000	0,00000E+000	-1,51301E+000	-1,13035E+000	1,54684E-001	1,32500E+003	12	...........
	144	145	7,98594E-001	-1,88855E+000	0,00000E+000	-1,50818E+000	-1,13123E+000	1,54759E-001	1,32500E+003	12	...........
	145	146	8,01006E-001	-1,90728E+000	0,00000E+000	-1,52774E+000	-1,14244E+000	1,56412E-001	1,32500E+003	12	...........
	146	147	7,99994E-001	-1,89049E+000	0,00000E+000	-1,51238E+000	-1,13239E+000	1,55140E-001	1,32500E+003	12	...........
	147	148	8,00213E-001	-1,90601E+000	0,00000E+000	-1,52521E+000	-1,14168E+000	1,56418E-001	1,32493E+003	12	...........
	148	149	7,99703E-001	-1,89438E+000	0,00000E+000	-1,51494E+000	-1,13470E+000	1,55459E-001	1,32490E+003	12	...........
	149	150	7,99719E-001	-1,93931E+000	0,00000E+000	-1,55090E+000	-1,16161E+000	1,59121E-001	1,32490E+003	12	...........
	150	151	7,99829E-001	-1,92960E+000	0,00000E+000	-1,54335E+000	-1,15580E+000	1,58355E-001	1,32490E+003	12	...........
	151	152	8,00080E-001	-1,94179E+000	0,00000E+000	-1,55359E+000	-1,16309E+000	1,59389E-001	1,32496E+003	12	...........
	152	153	8,00403E-001	-1,95039E+000	0,00000E+000	-1,56109E+000	-1,16823E+000	1,60117E-001	1,32493E+003	12	...........
	153	154	8,00545E-001	-1,93469E+000	0,00000E+000	-1,54880E+000	-1,15885E+000	1,58837E-001	1,32490E+003	12	...........
	154	155	7,99983E-001	-1,92279E+000	0,00000E+000	-1,53820E+000	-1,15172E+000	1,57830E-001	1,32496E+003	12	...........
	155	156	7,98913E-001	-1,97448E+000	0,00000E+000	-1,57744E+000	-1,18267E+000	1,61972E-001	1,32500E+003	12	...........
	156	157	8,00448E-001	-1,97524E+000	0,00000E+000	-1,58108E+000	-1,18311E+000	1,61969E-001	1,32500E+003	12	...........
	157	158	7,99620E-001	-1,92980E+000	0,00000E+000	-1,54311E+000	-1,15593E+000	1,58191E-001	1,32500E+003	12	...........
	158	159	7,99776E-001	-1,96656E+000	0,00000E+000	-1,57280E+000	-1,17792E+000	1,61191E-001	1,32493E+003	12	...........
	159	160	8,00118E-001	-1,96061E+000	0,00000E+000	-1,56872E+000	-1,17435E+000	1,60715E-001	1,32496E+003	12	...........
	160	161	8,00680E-001	-1,98456E+000	0,00000E+000	-1,58900E+000	-1,18871E+000	1,62670E-001	1,32500E+003	12	...........
	161	162	7,99317E-001	-1,96238E+000	0,00000E+000	-1,56856E+000	-1,17542E+000	1,60838E-001	1,32493E+003	12	...........
	162	163	7,99756E-001	-1,97349E+000	0,00000E+000	-1,57831E+000	-1,18207E+000	1,61728E-001	1,32496E+003	12	...........
	163	164	8,01601E-001	-1,88738E+000	0,00000E+000	-1,51293E+000	-1,13052E+000	1,54664E-001	1,32500E+003	12	...........
	164	165	7,99683E-001	-1,94145E+000	0,00000E+000	-1,55254E+000	-1,16289E+000	1,59215E-001	1,32503E+003	12	...........
	165	166	7,99034E-001	-1,95430E+000	0,00000E+000	-1,56155E+000	-1,17058E+000	1,60214E-001	1,32503E+003	12	...........
	166	167	8,00028E-001	-1,95037E+000	0,00000E+000	-1,56035E+000	-1,16824E+000	1,59933E-001	1,32493E+003	12	...........
	167	168	8,00969E-001	-1,92714E+000	0,00000E+000	-1,54358E+000	-1,15432E+000	1,57992E-001	1,32490E+003	12	...........
	168	169	7,98940E-001	-1,98823E+000	0,00000E+000	-1,58848E+000	-1,19090E+000	1,62961E-001	1,32496E+003	12	...........
	169	170	8,00606E-001	-1,97433E+000	0,00000E+000	-1,58066E+000	-1,18258E+000	1,61995E-001	1,32500E+003	12	...........
	170	171	8,00661E-001	-1,92111E+000	0,00000E+000	-1,53816E+000	-1,15073E+000	1,57503E-001	1,32493E+003	12	...........
	171	172	7,98690E-001	-1,99483E+000	0,00000E+000	-1,59325E+000	-1,19485E+000	1,63735E-001	1,32496E+003	12	...........
	172	173	8,00585E-001	-1,96018E+000	0,00000E+000	-1,56929E+000	-1,17412E+000	1,60806E-001	1,32500E+003	12	...........
	173	174	8,00595E-001	-2,00833E+000	0,00000E+000	-1,60786E+000	-1,20293E+000	1,64824E-001	1,32500E+003	12	...........
	174	175	7,99846E-001	-1,95891E+000	0,00000E+000	-1,56683E+000	-1,17335E+000	1,60752E-001	1,32503E+003	12	...........
	175	176	7,99901E-001	-1,97481E+000	0,00000E+000	-1,57966E+000	-1,18287E+000	1,62068E-001	1,32507E+003	12	...........
	176	177	7,99929E-001	-1,96729E+000	0,00000E+000	-1,57369E+000	-1,17834E+000	1,61462E-001	1,32503E+003	12	...........
	177	178	7,99718E-001	-1,96789E+000	0,00000E+000	-1,57376E+000	-1,17872E+000	1,61589E-001	1,32500E+003	12	...........
	178	179	8,00835E-001	-1,96011E+000	0,00000E+000	-1,56972E+000	-1,17407E+000	1,61000E-001	1,32500E+003	12	...........
	179	180	7,99320E-001	-2,00926E+000	0,00000E+000	-1,60604E+000	-1,20349E+000	1,64983E-001	1,32510E+003	12	...........
	180	181	7,99302E-001	-1,95166E+000	0,00000E+000	-1,55996E+000	-1,16900E+000	1,60193E-001	1,32506E+003	12	...........
	181	182	8,01219E-001	-1,97193E+000	0,00000E+000	-1,57995E+000	-1,18114E+000	1,61913E-001	1,32500E+003	12	...........
	182	183	7,98425E-001	-1,99044E+000	0,00000E+000	-1,58922E+000	-1,19224E+000	1,63481E-001	1,32493E+003	12	...........
	183	184	8,00453E-001	-1,93102E+000	0,00000E+000	-1,54569E+000	-1,15666E+000	1,58548E-001	1,32500E+003	12	...........
	184	185	8,00919E-001	-1,95537E+000	0,00000E+000	-1,56610E+000	-1,17122E+000	1,60495E-001	1,32507E+003	12	...........
	185	186	7,98577E-001	-2,00536E+000	0,00000E+000	-1,60143E+000	-1,20116E+000	1,64543E-001	1,32503E+003	12	...........
	186	187	8,01444E-001	-1,94464E+000	0,00000E+000	-1,55852E+000	-1,16481E+000	1,59550E-001	1,32500E+003	12	...........
	187	188	7,99225E-001	-2,00680E+000	0,00000E+000	-1,60389E+000	-1,20202E+000	1,64727E-001	1,32503E+003	12	...........
	188	189	8,00611E-001	-1,96752E+000	0,00000E+000	-1,57522E+000	-1,17850E+000	1,61499E-001	1,32503E+003	12	...........
	189	190	7,99205E-001	-1,95647E+000	0,00000E+000	-1,56362E+000	-1,17189E+000	1,60648E-001	1,32500E+003	12	...........
	190	191	8,00045E-001	-1,96551E+000	0,00000E+000	-1,57250E+000	-1,17729E+000	1,61338E-001	1,32500E+003	12	...........
	191	192	8,00207E-001	-1,99115E+000	0,00000E+000	-1,59334E+000	-1,19264E+000	1,63441E-001	1,32500E+003	12	...........
	192	193	7,99759E-001	-1,95853E+000	0,00000E+000	-1,56635E+000	-1,17311E+000	1,60730E-001	1,32500E+003	12	...........
	193	194	8,01304E-001	-1,93369E+000	0,00000E+000	-1,54947E+000	-1,15825E+000	1,58630E-001	1,32503E+003	12	...........
	194	195	7,99035E-001	-1,92609E+000	0,00000E+000	-1,53901E+000	-1,15370E+000	1,58035E-001	1,32507E+003	12	...........
	195	196	8,00572E-001	-1,95685E+000	0,00000E+000	-1,56660E+000	-1,17210E+000	1,60460E-001	1,32507E+003	12	...........
	196	197	7,99022E-001	-1,91534E+000	0,00000E+000	-1,53040E+000	-1,14726E+000	1,57097E-001	1,32507E+003	12	...........
	197	198	8,00020E-001	-1,94299E+000	0,00000E+000	-1,55443E+000	-1,16381E+000	1,59435E-001	1,32513E+003	12	...........
	198	199	8,00363E-001	-1,97677E+000	0,00000E+000	-1,58213E+000	-1,18405E+000	1,62298E-001	1,32506E+003	12	...........
	199	200	8,00834E-001	-1,94312E+000	0,00000E+000	-1,55612E+000	-1,16389E+000	1,59584E-001	1,32503E+003	12	...........
	200	201	7,98433E-001	-1,97626E+000	0,00000E+000	-1,57791E+000	-1,18375E+000	1,62367E-001	1,32507E+003	12	...........
	201	202	7,99918E-001	-1,96868E+000	0,00000E+000	-1,57478E+000	-1,17919E+000	1,61691E-001	1,32507E+003	12	...........
	202	203	8,00455E-001	-1,94555E+000	0,00000E+000	-1,55732E+000	-1,16536E+000	1,59844E-001	1,32507E+003	12	...........
	203	204	7,99483E-001	-1,98003E+000	0,00000E+000	-1,58300E+000	-1,18601E+000	1,62809E-001	1,32507E+003	12	...........
	204	205	8,01611E-001	-1,96089E+000	0,00000E+000	-1,57187E+000	-1,17454E+000	1,61268E-001	1,32503E+003	12	...........
	205	206	7,98855E-001	-1,97478E+000	0,00000E+000	-1,57757E+000	-1,18285E+000	1,62319E-001	1,32503E+003	12	...........
	206	207	8,00678E-001	-1,92614E+000	0,00000E+000	-1,54222E+000	-1,15374E+000	1,58294E-001	1,32507E+003	12	...........
	207	208	8,00561E-001	-1,92392E+000	0,00000E+000	-1,54022E+000	-1,15241E+000	1,57985E-001	1,32513E+003	12	...........
	208	209	7,99789E-001	-1,92360E+000	0,00000E+000	-1,53848E+000	-1,15222E+000	1,57998E-001	1,32510E+003	12	...........
	209	210	7,98913E-001	-1,95285E+000	0,00000E+000	-1,56016E+000	-1,16973E+000	1,60373E-001	1,32507E+003	12	...........
