EXPLAIN
TAG	PWR800_POTENTIOSTATIC
TITLE	LABEL	PWRPOTSTAT_ps10_zn16_paa1_v08	Test &Identifier
DATE	LABEL	12.11.2018	Date
TIME	LABEL	19:31:31	Time
NOTES	NOTES	1	&Notes...
	
PSTAT	PSTAT	IFC5000-03531	Potentiostat
CAPACITY	QUANT	1,00000E+000	Capacity (A-hr)
CELLTYPE	SELECTOR	0	&Cell Type
WORKINGCONNECTION	SELECTOR	0	&Working Lead
MAXI	QUANT	5,00000E+000	Max Current (A)
VOLTAGE	QUANT	8,00000E-001	Voltage (V)
MAXTIME	VARIABLEANDUNITS	3,60000E+003	s	1,00000E+000	hour(s)	Max Time
SAMPLETIME	QUANT	1,00000E+000	Sa&mple Period (s)
STOPTHRESH	VARIABLEANDUNITS	5,00000E+000	s	5,00000E+000	second(s)	Stop At Threshold
STOPAT1	MULTIPARAM	2	5,00000E+000	Stop At &1	|Current| > Limit	A
STOPAT2	MULTIPARAM	0	0,00000E+000	Stop At &2	None	N/A
AESBHCSelector	TOGGLE	F	Save Both Half Cells
IRCOMP	TOGGLE	F	IR Measure
EOC	QUANT	0	Open Circuit (V)
SEQUENCER	TOGGLE	TRUE	Run as Sequence
PSTATMODEL	IQUANT	53	Pstat Model
PSTATSECTION	LABEL	IFC5000-03531	Pstat Section
PSTATSERIALNO	LABEL	03531	Pstat Serial Number
CTRLMODE	IQUANT	0	Control Mode
ELECTROMETER	IQUANT	0	RE=0 or CS=1
IESTAB	IQUANT	0	I/E Stability
CASPEED	IQUANT	4	Control Amp Speed
CONVENTION	IQUANT	1	Current Convention
ICHRANGE	IQUANT	2	Ich Range
ICHRANGEMODE	TOGGLE	T	Ich Auto Range
ICHOFFSETENABLE	TOGGLE	F	Ich Offset Enable
ICHOFFSET	QUANT	0	Ich Offset (V)
ICHFILTER	IQUANT	1	Ich Filter
VCHRANGE	IQUANT	2	Vch Range
VCHRANGEMODE	TOGGLE	T	Vch Auto Range
VCHOFFSETENABLE	TOGGLE	F	Vch Offset Enable
VCHOFFSET	QUANT	0	Vch Offset (V)
VCHFILTER	IQUANT	1	Vch Filter
IERANGELOWERLIMIT	IQUANT	9	I/E Range Lower Limit
IERANGEMODE	TOGGLE	F	I/E AutoRange
IERANGE	IQUANT	12	I/E Range
ACHSELECT	IQUANT	1	Ach Select
ACHRANGE	IQUANT	2	Ach Range
ACHOFFSETENABLE	TOGGLE	F	Ach Offset Enable
ACHOFFSET	QUANT	0	Ach Offset (V)
ACHFILTER	IQUANT	1	Ach Filter
SENSECABLEID	IQUANT	14	Sense Cable ID
PWRCABLEID	IQUANT	7	Power Cable ID
DCCALDATE	LABEL	5/31/2018	DC Calibration Date
ACCALDATE	LABEL	5/15/2017	AC Calibration Date
FRAMEWORKVERSION	QUANT	7,06	Framework Version
INSTRUMENTVERSION	LABEL	4.30	Instrument Version
CURVE	TABLE	462
	Pt	T	Vf	Im	Vu	Pwr	Sig	Ach	Temp	IERange	Over
	#	s	V	A	V	W	V	V	deg C	#	bits
	0	1	8,12096E-001	-2,32044E+000	0,00000E+000	-1,88442E+000	-1,38974E+000	1,87581E-001	1,32542E+003	12	.........va
	1	2	8,00476E-001	-2,41545E+000	0,00000E+000	-1,93351E+000	-1,44663E+000	1,96182E-001	1,32483E+003	12	...........
	2	3	7,99952E-001	-2,40053E+000	0,00000E+000	-1,92031E+000	-1,43769E+000	1,94939E-001	1,32517E+003	12	...........
	3	4	8,00696E-001	-2,33460E+000	0,00000E+000	-1,86931E+000	-1,39822E+000	1,89563E-001	1,32532E+003	12	...........
	4	5	7,99123E-001	-2,36484E+000	0,00000E+000	-1,88979E+000	-1,41633E+000	1,92044E-001	1,32540E+003	12	...........
	5	6	8,00190E-001	-2,33405E+000	0,00000E+000	-1,86768E+000	-1,39788E+000	1,89603E-001	1,32534E+003	12	...........
	6	7	8,00151E-001	-2,37649E+000	0,00000E+000	-1,90155E+000	-1,42331E+000	1,93068E-001	1,32540E+003	12	...........
	7	8	8,00243E-001	-2,37409E+000	0,00000E+000	-1,89985E+000	-1,42186E+000	1,92906E-001	1,32534E+003	12	...........
	8	9	7,99212E-001	-2,33708E+000	0,00000E+000	-1,86782E+000	-1,39970E+000	1,89937E-001	1,32532E+003	12	...........
	9	10	8,00268E-001	-2,27044E+000	0,00000E+000	-1,81696E+000	-1,35980E+000	1,84578E-001	1,32527E+003	12	...........
	10	11	8,00794E-001	-2,31080E+000	0,00000E+000	-1,85047E+000	-1,38396E+000	1,87894E-001	1,32530E+003	12	...........
	11	12	7,98751E-001	-2,34633E+000	0,00000E+000	-1,87413E+000	-1,40524E+000	1,90836E-001	1,32532E+003	12	...........
	12	13	8,00218E-001	-2,36360E+000	0,00000E+000	-1,89139E+000	-1,41558E+000	1,92276E-001	1,32540E+003	12	...........
	13	14	8,00961E-001	-2,32651E+000	0,00000E+000	-1,86345E+000	-1,39339E+000	1,89279E-001	1,32534E+003	12	...........
	14	15	7,99582E-001	-2,41653E+000	0,00000E+000	-1,93222E+000	-1,44727E+000	1,96629E-001	1,32540E+003	12	...........
	15	16	7,99837E-001	-2,44056E+000	0,00000E+000	-1,95205E+000	-1,46166E+000	1,98600E-001	1,32534E+003	12	...........
	16	17	7,99771E-001	-2,37650E+000	0,00000E+000	-1,90066E+000	-1,42331E+000	1,93409E-001	1,32532E+003	12	...........
	17	18	8,00359E-001	-2,36159E+000	0,00000E+000	-1,89012E+000	-1,41438E+000	1,92199E-001	1,32532E+003	12	...........
	18	19	8,00154E-001	-2,39117E+000	0,00000E+000	-1,91330E+000	-1,43208E+000	1,94618E-001	1,32540E+003	12	...........
	19	20	7,99768E-001	-2,40451E+000	0,00000E+000	-1,92305E+000	-1,44008E+000	1,95734E-001	1,32542E+003	12	...........
	20	21	7,99592E-001	-2,32166E+000	0,00000E+000	-1,85638E+000	-1,39048E+000	1,89039E-001	1,32534E+003	12	...........
	21	22	8,00108E-001	-2,39844E+000	0,00000E+000	-1,91902E+000	-1,43643E+000	1,95295E-001	1,32532E+003	12	...........
	22	23	8,00117E-001	-2,42853E+000	0,00000E+000	-1,94310E+000	-1,45446E+000	1,97779E-001	1,32532E+003	12	...........
	23	24	8,00096E-001	-2,38746E+000	0,00000E+000	-1,91020E+000	-1,42987E+000	1,94493E-001	1,32532E+003	12	...........
	24	25	7,99574E-001	-2,39526E+000	0,00000E+000	-1,91519E+000	-1,43453E+000	1,95158E-001	1,32532E+003	12	...........
	25	26	8,00855E-001	-2,34774E+000	0,00000E+000	-1,88020E+000	-1,40609E+000	1,91292E-001	1,32532E+003	12	...........
	26	27	8,00005E-001	-2,41827E+000	0,00000E+000	-1,93463E+000	-1,44832E+000	1,97034E-001	1,32540E+003	12	...........
	27	28	7,99885E-001	-2,43033E+000	0,00000E+000	-1,94399E+000	-1,45555E+000	1,98033E-001	1,32534E+003	12	...........
	28	29	8,00395E-001	-2,39937E+000	0,00000E+000	-1,92044E+000	-1,43700E+000	1,95515E-001	1,32532E+003	12	...........
	29	30	7,99257E-001	-2,41853E+000	0,00000E+000	-1,93303E+000	-1,44847E+000	1,97091E-001	1,32532E+003	12	...........
	30	31	8,00583E-001	-2,44032E+000	0,00000E+000	-1,95368E+000	-1,46152E+000	1,98878E-001	1,32532E+003	12	...........
	31	32	8,00119E-001	-2,43121E+000	0,00000E+000	-1,94525E+000	-1,45607E+000	1,98127E-001	1,32540E+003	12	...........
	32	33	8,00059E-001	-2,45759E+000	0,00000E+000	-1,96622E+000	-1,47187E+000	2,00276E-001	1,32534E+003	12	...........
	33	34	7,99956E-001	-2,43347E+000	0,00000E+000	-1,94667E+000	-1,45742E+000	1,98322E-001	1,32532E+003	12	...........
	34	35	7,99417E-001	-2,49777E+000	0,00000E+000	-1,99676E+000	-1,49592E+000	2,03600E-001	1,32540E+003	12	...........
	35	36	7,99580E-001	-2,45350E+000	0,00000E+000	-1,96177E+000	-1,46940E+000	2,00022E-001	1,32534E+003	12	...........
	36	37	8,00215E-001	-2,42875E+000	0,00000E+000	-1,94352E+000	-1,45460E+000	1,98017E-001	1,32527E+003	12	...........
	37	38	8,00025E-001	-2,46610E+000	0,00000E+000	-1,97294E+000	-1,47696E+000	2,01096E-001	1,32530E+003	12	...........
	38	39	8,00763E-001	-2,48025E+000	0,00000E+000	-1,98609E+000	-1,48542E+000	2,02281E-001	1,32532E+003	12	...........
	39	40	7,99638E-001	-2,36688E+000	0,00000E+000	-1,89264E+000	-1,41755E+000	1,93053E-001	1,32527E+003	12	...........
	40	41	8,00310E-001	-2,43491E+000	0,00000E+000	-1,94868E+000	-1,45828E+000	1,98592E-001	1,32538E+003	12	...........
	41	42	7,99496E-001	-2,46446E+000	0,00000E+000	-1,97033E+000	-1,47598E+000	2,01024E-001	1,32534E+003	12	...........
	42	43	8,00005E-001	-2,47391E+000	0,00000E+000	-1,97914E+000	-1,48163E+000	2,01800E-001	1,32532E+003	12	...........
	43	44	8,00593E-001	-2,51959E+000	0,00000E+000	-2,01716E+000	-1,50900E+000	2,05539E-001	1,32532E+003	12	...........
	44	45	7,99824E-001	-2,48511E+000	0,00000E+000	-1,98765E+000	-1,48835E+000	2,02731E-001	1,32532E+003	12	...........
	45	46	7,99291E-001	-2,54450E+000	0,00000E+000	-2,03380E+000	-1,52390E+000	2,07584E-001	1,32532E+003	12	...........
	46	47	8,00309E-001	-2,48610E+000	0,00000E+000	-1,98965E+000	-1,48892E+000	2,02799E-001	1,32532E+003	12	...........
	47	48	8,00557E-001	-2,51900E+000	0,00000E+000	-2,01660E+000	-1,50862E+000	2,05468E-001	1,32540E+003	12	...........
	48	49	7,99787E-001	-2,51022E+000	0,00000E+000	-2,00764E+000	-1,50338E+000	2,04718E-001	1,32534E+003	12	...........
	49	50	7,99871E-001	-2,49327E+000	0,00000E+000	-1,99429E+000	-1,49323E+000	2,03322E-001	1,32532E+003	12	...........
	50	51	7,99877E-001	-2,52172E+000	0,00000E+000	-2,01707E+000	-1,51026E+000	2,05634E-001	1,32527E+003	12	...........
	51	52	7,99933E-001	-2,48934E+000	0,00000E+000	-1,99131E+000	-1,49087E+000	2,03001E-001	1,32530E+003	12	...........
	52	53	7,99891E-001	-2,52652E+000	0,00000E+000	-2,02094E+000	-1,51314E+000	2,06058E-001	1,32527E+003	12	...........
	53	54	8,00649E-001	-2,49651E+000	0,00000E+000	-1,99883E+000	-1,49517E+000	2,03587E-001	1,32538E+003	12	...........
	54	55	7,99324E-001	-2,54643E+000	0,00000E+000	-2,03542E+000	-1,52506E+000	2,07673E-001	1,32534E+003	12	...........
	55	56	7,99690E-001	-2,50614E+000	0,00000E+000	-2,00413E+000	-1,50094E+000	2,04371E-001	1,32532E+003	12	...........
	56	57	8,00176E-001	-2,49504E+000	0,00000E+000	-1,99647E+000	-1,49428E+000	2,03446E-001	1,32532E+003	12	...........
	57	58	8,00418E-001	-2,42743E+000	0,00000E+000	-1,94296E+000	-1,45380E+000	1,97923E-001	1,32532E+003	12	...........
	58	59	7,99786E-001	-2,52003E+000	0,00000E+000	-2,01549E+000	-1,50926E+000	2,05490E-001	1,32532E+003	12	...........
	59	60	7,99756E-001	-2,51204E+000	0,00000E+000	-2,00902E+000	-1,50447E+000	2,04839E-001	1,32532E+003	12	...........
	60	61	8,00573E-001	-2,56622E+000	0,00000E+000	-2,05445E+000	-1,53691E+000	2,09277E-001	1,32532E+003	12	...........
	61	62	7,99241E-001	-2,56504E+000	0,00000E+000	-2,05008E+000	-1,53620E+000	2,09192E-001	1,32532E+003	12	...........
	62	63	8,00432E-001	-2,51516E+000	0,00000E+000	-2,01322E+000	-1,50635E+000	2,05130E-001	1,32527E+003	12	...........
	63	64	8,00410E-001	-2,57325E+000	0,00000E+000	-2,05966E+000	-1,54112E+000	2,09878E-001	1,32530E+003	12	...........
	64	65	8,00157E-001	-2,46316E+000	0,00000E+000	-1,97092E+000	-1,47521E+000	2,00915E-001	1,32532E+003	12	...........
	65	66	7,99593E-001	-2,53472E+000	0,00000E+000	-2,02674E+000	-1,51806E+000	2,06749E-001	1,32527E+003	12	...........
	66	67	7,99441E-001	-2,51898E+000	0,00000E+000	-2,01377E+000	-1,50864E+000	2,05448E-001	1,32530E+003	12	...........
	67	68	8,00926E-001	-2,52008E+000	0,00000E+000	-2,01839E+000	-1,50927E+000	2,05522E-001	1,32532E+003	12	...........
	68	69	7,99968E-001	-2,49390E+000	0,00000E+000	-1,99504E+000	-1,49362E+000	2,03348E-001	1,32532E+003	12	...........
	69	70	7,99907E-001	-2,49149E+000	0,00000E+000	-1,99296E+000	-1,49216E+000	2,03136E-001	1,32532E+003	12	...........
	70	71	7,99614E-001	-2,61949E+000	0,00000E+000	-2,09458E+000	-1,56881E+000	2,13618E-001	1,32532E+003	12	...........
	71	72	8,00481E-001	-2,57833E+000	0,00000E+000	-2,06390E+000	-1,54414E+000	2,10235E-001	1,32532E+003	12	...........
	72	73	7,99699E-001	-2,49952E+000	0,00000E+000	-1,99886E+000	-1,49697E+000	2,03800E-001	1,32527E+003	12	...........
	73	74	8,00339E-001	-2,59186E+000	0,00000E+000	-2,07437E+000	-1,55225E+000	2,11356E-001	1,32530E+003	12	...........
	74	75	7,99631E-001	-2,56733E+000	0,00000E+000	-2,05292E+000	-1,53757E+000	2,09374E-001	1,32532E+003	12	...........
	75	76	7,99391E-001	-2,58903E+000	0,00000E+000	-2,06965E+000	-1,55056E+000	2,11170E-001	1,32532E+003	12	...........
	76	77	8,00261E-001	-2,53752E+000	0,00000E+000	-2,03068E+000	-1,51972E+000	2,06986E-001	1,32527E+003	12	...........
	77	78	8,00377E-001	-2,60206E+000	0,00000E+000	-2,08263E+000	-1,55837E+000	2,12320E-001	1,32530E+003	12	...........
	78	79	7,99991E-001	-2,60229E+000	0,00000E+000	-2,08181E+000	-1,55849E+000	2,12393E-001	1,32532E+003	12	...........
	79	80	8,00046E-001	-2,59116E+000	0,00000E+000	-2,07305E+000	-1,55184E+000	2,11496E-001	1,32532E+003	12	...........
	80	81	7,99437E-001	-2,55397E+000	0,00000E+000	-2,04174E+000	-1,52958E+000	2,08464E-001	1,32532E+003	12	...........
	81	82	8,00274E-001	-2,55664E+000	0,00000E+000	-2,04601E+000	-1,53116E+000	2,08687E-001	1,32532E+003	12	...........
	82	83	8,00198E-001	-2,59542E+000	0,00000E+000	-2,07685E+000	-1,55439E+000	2,11861E-001	1,32527E+003	12	...........
	83	84	7,99824E-001	-2,60010E+000	0,00000E+000	-2,07962E+000	-1,55720E+000	2,12208E-001	1,32530E+003	12	...........
	84	85	8,00413E-001	-2,59381E+000	0,00000E+000	-2,07612E+000	-1,55344E+000	2,11673E-001	1,32532E+003	12	...........
	85	86	7,99458E-001	-2,57875E+000	0,00000E+000	-2,06160E+000	-1,54442E+000	2,10462E-001	1,32532E+003	12	...........
	86	87	8,00690E-001	-2,58893E+000	0,00000E+000	-2,07293E+000	-1,55050E+000	2,11299E-001	1,32532E+003	12	...........
	87	88	7,99575E-001	-2,54450E+000	0,00000E+000	-2,03451E+000	-1,52390E+000	2,07687E-001	1,32532E+003	12	...........
	88	89	7,99683E-001	-2,53184E+000	0,00000E+000	-2,02467E+000	-1,51632E+000	2,06676E-001	1,32532E+003	12	...........
	89	90	8,00287E-001	-2,56399E+000	0,00000E+000	-2,05193E+000	-1,53558E+000	2,09343E-001	1,32527E+003	12	...........
	90	91	8,00467E-001	-2,56690E+000	0,00000E+000	-2,05472E+000	-1,53734E+000	2,09634E-001	1,32530E+003	12	...........
	91	92	8,00023E-001	-2,55217E+000	0,00000E+000	-2,04180E+000	-1,52851E+000	2,08507E-001	1,32527E+003	12	...........
	92	93	7,99236E-001	-2,60567E+000	0,00000E+000	-2,08254E+000	-1,56056E+000	2,12975E-001	1,32530E+003	12	...........
	93	94	8,00568E-001	-2,64566E+000	0,00000E+000	-2,11803E+000	-1,58448E+000	2,16283E-001	1,32527E+003	12	...........
	94	95	8,00114E-001	-2,54963E+000	0,00000E+000	-2,04000E+000	-1,52698E+000	2,08405E-001	1,32530E+003	12	...........
	95	96	7,99769E-001	-2,58244E+000	0,00000E+000	-2,06536E+000	-1,54662E+000	2,11095E-001	1,32532E+003	12	...........
	96	97	7,99732E-001	-2,57593E+000	0,00000E+000	-2,06005E+000	-1,54274E+000	2,10536E-001	1,32532E+003	12	...........
	97	98	7,99876E-001	-2,62782E+000	0,00000E+000	-2,10193E+000	-1,57382E+000	2,14762E-001	1,32527E+003	12	...........
	98	99	8,00739E-001	-2,60270E+000	0,00000E+000	-2,08408E+000	-1,55876E+000	2,12707E-001	1,32530E+003	12	...........
	99	100	7,99950E-001	-2,57045E+000	0,00000E+000	-2,05623E+000	-1,53949E+000	2,10097E-001	1,32532E+003	12	...........
	100	101	7,99808E-001	-2,60863E+000	0,00000E+000	-2,08640E+000	-1,56231E+000	2,13295E-001	1,32532E+003	12	...........
	101	102	7,99913E-001	-2,60378E+000	0,00000E+000	-2,08280E+000	-1,55939E+000	2,12977E-001	1,32532E+003	12	...........
	102	103	7,99786E-001	-2,58300E+000	0,00000E+000	-2,06585E+000	-1,54696E+000	2,11361E-001	1,32532E+003	12	...........
	103	104	8,00012E-001	-2,60645E+000	0,00000E+000	-2,08519E+000	-1,56099E+000	2,13357E-001	1,32527E+003	12	...........
	104	105	8,00157E-001	-2,60519E+000	0,00000E+000	-2,08456E+000	-1,56026E+000	2,13254E-001	1,32530E+003	12	...........
	105	106	7,99676E-001	-2,60965E+000	0,00000E+000	-2,08688E+000	-1,56294E+000	2,13636E-001	1,32532E+003	12	...........
	106	107	7,99883E-001	-2,54144E+000	0,00000E+000	-2,03285E+000	-1,52208E+000	2,08019E-001	1,32527E+003	12	...........
	107	108	7,99892E-001	-2,55442E+000	0,00000E+000	-2,04326E+000	-1,52985E+000	2,09082E-001	1,32530E+003	12	...........
	108	109	8,00054E-001	-2,56763E+000	0,00000E+000	-2,05425E+000	-1,53776E+000	2,10131E-001	1,32532E+003	12	...........
	109	110	8,00169E-001	-2,61779E+000	0,00000E+000	-2,09468E+000	-1,56781E+000	2,14249E-001	1,32532E+003	12	...........
	110	111	7,99997E-001	-2,60104E+000	0,00000E+000	-2,08083E+000	-1,55775E+000	2,12886E-001	1,32532E+003	12	...........
	111	112	7,99730E-001	-2,57496E+000	0,00000E+000	-2,05927E+000	-1,54214E+000	2,10771E-001	1,32532E+003	12	...........
	112	113	8,00108E-001	-2,59590E+000	0,00000E+000	-2,07700E+000	-1,55468E+000	2,12487E-001	1,32532E+003	12	...........
	113	114	8,00081E-001	-2,57363E+000	0,00000E+000	-2,05911E+000	-1,54136E+000	2,10662E-001	1,32532E+003	12	...........
	114	115	7,99954E-001	-2,57912E+000	0,00000E+000	-2,06317E+000	-1,54464E+000	2,11090E-001	1,32532E+003	12	...........
	115	116	7,99905E-001	-2,59550E+000	0,00000E+000	-2,07616E+000	-1,55443E+000	2,12394E-001	1,32532E+003	12	...........
	116	117	8,00165E-001	-2,56522E+000	0,00000E+000	-2,05260E+000	-1,53632E+000	2,09901E-001	1,32532E+003	12	...........
	117	118	8,00222E-001	-2,57636E+000	0,00000E+000	-2,06166E+000	-1,54299E+000	2,10821E-001	1,32532E+003	12	...........
	118	119	8,00524E-001	-2,60760E+000	0,00000E+000	-2,08745E+000	-1,56170E+000	2,13391E-001	1,32527E+003	12	...........
	119	120	7,99414E-001	-2,64740E+000	0,00000E+000	-2,11637E+000	-1,58551E+000	2,16679E-001	1,32530E+003	12	...........
	120	121	7,99558E-001	-2,60965E+000	0,00000E+000	-2,08656E+000	-1,56293E+000	2,13608E-001	1,32527E+003	12	...........
	121	122	8,00133E-001	-2,57926E+000	0,00000E+000	-2,06375E+000	-1,54473E+000	2,11128E-001	1,32530E+003	12	...........
	122	123	8,00284E-001	-2,63354E+000	0,00000E+000	-2,10758E+000	-1,57722E+000	2,15626E-001	1,32540E+003	12	...........
	123	124	8,00613E-001	-2,62249E+000	0,00000E+000	-2,09960E+000	-1,57060E+000	2,14757E-001	1,32542E+003	12	...........
	124	125	7,99335E-001	-2,65627E+000	0,00000E+000	-2,12325E+000	-1,59083E+000	2,17570E-001	1,32534E+003	12	...........
	125	126	8,00171E-001	-2,66864E+000	0,00000E+000	-2,13537E+000	-1,59826E+000	2,18572E-001	1,32527E+003	12	...........
	126	127	7,99859E-001	-2,55555E+000	0,00000E+000	-2,04408E+000	-1,53054E+000	2,09264E-001	1,32538E+003	12	...........
	127	128	8,00405E-001	-2,55153E+000	0,00000E+000	-2,04226E+000	-1,52811E+000	2,08879E-001	1,32534E+003	12	...........
	128	129	8,00193E-001	-2,58375E+000	0,00000E+000	-2,06750E+000	-1,54742E+000	2,11478E-001	1,32532E+003	12	...........
	129	130	7,99696E-001	-2,61563E+000	0,00000E+000	-2,09171E+000	-1,56650E+000	2,14085E-001	1,32532E+003	12	...........
	130	131	7,99666E-001	-2,69926E+000	0,00000E+000	-2,15851E+000	-1,61658E+000	2,20946E-001	1,32532E+003	12	...........
	131	132	8,00417E-001	-2,71839E+000	0,00000E+000	-2,17585E+000	-1,62805E+000	2,22476E-001	1,32532E+003	12	...........
	132	133	8,00237E-001	-2,74505E+000	0,00000E+000	-2,19669E+000	-1,64399E+000	2,24614E-001	1,32532E+003	12	...........
	133	134	7,99490E-001	-2,67876E+000	0,00000E+000	-2,14164E+000	-1,60431E+000	2,19144E-001	1,32527E+003	12	...........
	134	135	8,00198E-001	-2,61142E+000	0,00000E+000	-2,08965E+000	-1,56398E+000	2,13553E-001	1,32525E+003	12	...........
	135	136	8,00097E-001	-2,63840E+000	0,00000E+000	-2,11097E+000	-1,58013E+000	2,15733E-001	1,32530E+003	12	...........
	136	137	7,99972E-001	-2,59881E+000	0,00000E+000	-2,07897E+000	-1,55642E+000	2,12450E-001	1,32532E+003	12	...........
	137	138	7,99093E-001	-2,66881E+000	0,00000E+000	-2,13263E+000	-1,59835E+000	2,18186E-001	1,32532E+003	12	...........
	138	139	8,00902E-001	-2,62877E+000	0,00000E+000	-2,10539E+000	-1,57436E+000	2,14909E-001	1,32532E+003	12	...........
	139	140	8,00015E-001	-2,65858E+000	0,00000E+000	-2,12690E+000	-1,59221E+000	2,17382E-001	1,32532E+003	12	...........
	140	141	8,00169E-001	-2,59338E+000	0,00000E+000	-2,07514E+000	-1,55319E+000	2,12042E-001	1,32532E+003	12	...........
	141	142	7,99852E-001	-2,60315E+000	0,00000E+000	-2,08213E+000	-1,55903E+000	2,12881E-001	1,32532E+003	12	...........
	142	143	7,99733E-001	-2,67316E+000	0,00000E+000	-2,13782E+000	-1,60094E+000	2,18631E-001	1,32532E+003	12	...........
	143	144	8,00497E-001	-2,64728E+000	0,00000E+000	-2,11914E+000	-1,58543E+000	2,16534E-001	1,32532E+003	12	...........
	144	145	7,99172E-001	-2,70029E+000	0,00000E+000	-2,15800E+000	-1,61719E+000	2,20932E-001	1,32532E+003	12	...........
	145	146	8,00209E-001	-2,62949E+000	0,00000E+000	-2,10414E+000	-1,57480E+000	2,15175E-001	1,32532E+003	12	...........
	146	147	8,00209E-001	-2,65213E+000	0,00000E+000	-2,12226E+000	-1,58835E+000	2,17093E-001	1,32532E+003	12	...........
	147	148	8,00118E-001	-2,63326E+000	0,00000E+000	-2,10692E+000	-1,57705E+000	2,15593E-001	1,32532E+003	12	...........
	148	149	7,99641E-001	-2,68455E+000	0,00000E+000	-2,14668E+000	-1,60778E+000	2,19798E-001	1,32532E+003	12	...........
	149	150	8,00607E-001	-2,64407E+000	0,00000E+000	-2,11686E+000	-1,58354E+000	2,16446E-001	1,32532E+003	12	...........
	150	151	7,99854E-001	-2,62096E+000	0,00000E+000	-2,09638E+000	-1,56968E+000	2,14539E-001	1,32540E+003	12	...........
	151	152	7,99877E-001	-2,68588E+000	0,00000E+000	-2,14837E+000	-1,60857E+000	2,19899E-001	1,32542E+003	12	...........
	152	153	8,00358E-001	-2,59468E+000	0,00000E+000	-2,07668E+000	-1,55396E+000	2,12422E-001	1,32534E+003	12	...........
	153	154	7,99908E-001	-2,60001E+000	0,00000E+000	-2,07977E+000	-1,55716E+000	2,12871E-001	1,32532E+003	12	...........
	154	155	7,99759E-001	-2,61149E+000	0,00000E+000	-2,08856E+000	-1,56402E+000	2,13808E-001	1,32532E+003	12	...........
	155	156	7,99519E-001	-2,66767E+000	0,00000E+000	-2,13286E+000	-1,59766E+000	2,18372E-001	1,32532E+003	12	...........
	156	157	8,00641E-001	-2,54119E+000	0,00000E+000	-2,03458E+000	-1,52194E+000	2,07932E-001	1,32532E+003	12	...........
	157	158	7,99417E-001	-2,52111E+000	0,00000E+000	-2,01542E+000	-1,50990E+000	2,06272E-001	1,32532E+003	12	...........
	158	159	8,00503E-001	-2,57458E+000	0,00000E+000	-2,06096E+000	-1,54191E+000	2,10632E-001	1,32532E+003	12	...........
	159	160	8,00243E-001	-2,62953E+000	0,00000E+000	-2,10427E+000	-1,57483E+000	2,15117E-001	1,32532E+003	12	...........
	160	161	7,99438E-001	-2,69959E+000	0,00000E+000	-2,15816E+000	-1,61678E+000	2,20843E-001	1,32532E+003	12	...........
	161	162	7,99757E-001	-2,63287E+000	0,00000E+000	-2,10566E+000	-1,57682E+000	2,15392E-001	1,32532E+003	12	...........
	162	163	8,00393E-001	-2,68049E+000	0,00000E+000	-2,14545E+000	-1,60533E+000	2,19307E-001	1,32532E+003	12	...........
	163	164	8,00285E-001	-2,64212E+000	0,00000E+000	-2,11445E+000	-1,58235E+000	2,16152E-001	1,32532E+003	12	...........
	164	165	8,00074E-001	-2,59112E+000	0,00000E+000	-2,07309E+000	-1,55183E+000	2,11954E-001	1,32532E+003	12	...........
	165	166	7,99810E-001	-2,64327E+000	0,00000E+000	-2,11412E+000	-1,58306E+000	2,16231E-001	1,32532E+003	12	...........
	166	167	7,99845E-001	-2,61308E+000	0,00000E+000	-2,09006E+000	-1,56497E+000	2,13776E-001	1,32532E+003	12	...........
	167	168	8,00391E-001	-2,56909E+000	0,00000E+000	-2,05628E+000	-1,53863E+000	2,10153E-001	1,32532E+003	12	...........
	168	169	7,99731E-001	-2,64381E+000	0,00000E+000	-2,11434E+000	-1,58338E+000	2,16300E-001	1,32532E+003	12	...........
	169	170	7,99759E-001	-2,66919E+000	0,00000E+000	-2,13471E+000	-1,59857E+000	2,18416E-001	1,32532E+003	12	...........
	170	171	7,99943E-001	-2,63678E+000	0,00000E+000	-2,10927E+000	-1,57916E+000	2,15786E-001	1,32532E+003	12	...........
	171	172	7,99889E-001	-2,69704E+000	0,00000E+000	-2,15733E+000	-1,61525E+000	2,20762E-001	1,32532E+003	12	...........
	172	173	8,00105E-001	-2,66933E+000	0,00000E+000	-2,13574E+000	-1,59865E+000	2,18456E-001	1,32532E+003	12	...........
	173	174	7,99860E-001	-2,64315E+000	0,00000E+000	-2,11415E+000	-1,58297E+000	2,16240E-001	1,32532E+003	12	...........
	174	175	8,00687E-001	-2,68462E+000	0,00000E+000	-2,14955E+000	-1,60780E+000	2,19612E-001	1,32532E+003	12	...........
	175	176	7,99797E-001	-2,67582E+000	0,00000E+000	-2,14012E+000	-1,60254E+000	2,18874E-001	1,32532E+003	12	...........
	176	177	7,99531E-001	-2,74154E+000	0,00000E+000	-2,19195E+000	-1,64190E+000	2,24268E-001	1,32532E+003	12	...........
	177	178	8,00116E-001	-2,69247E+000	0,00000E+000	-2,15429E+000	-1,61252E+000	2,20198E-001	1,32540E+003	12	...........
	178	179	8,00319E-001	-2,72574E+000	0,00000E+000	-2,18146E+000	-1,63243E+000	2,22940E-001	1,32534E+003	12	...........
	179	180	7,99836E-001	-2,60220E+000	0,00000E+000	-2,08133E+000	-1,55844E+000	2,12783E-001	1,32532E+003	12	...........
	180	181	8,00111E-001	-2,68170E+000	0,00000E+000	-2,14566E+000	-1,60607E+000	2,19370E-001	1,32532E+003	12	...........
	181	182	8,00125E-001	-2,62930E+000	0,00000E+000	-2,10377E+000	-1,57468E+000	2,15068E-001	1,32532E+003	12	...........
	182	183	8,00103E-001	-2,62819E+000	0,00000E+000	-2,10282E+000	-1,57401E+000	2,14988E-001	1,32532E+003	12	...........
	183	184	8,00024E-001	-2,63204E+000	0,00000E+000	-2,10570E+000	-1,57634E+000	2,15256E-001	1,32540E+003	12	...........
	184	185	7,99824E-001	-2,69907E+000	0,00000E+000	-2,15878E+000	-1,61646E+000	2,20702E-001	1,32542E+003	12	...........
	185	186	8,00081E-001	-2,66497E+000	0,00000E+000	-2,13219E+000	-1,59604E+000	2,17860E-001	1,32534E+003	12	...........
	186	187	7,99836E-001	-2,71588E+000	0,00000E+000	-2,17226E+000	-1,62653E+000	2,22031E-001	1,32532E+003	12	...........
	187	188	7,99642E-001	-2,70334E+000	0,00000E+000	-2,16171E+000	-1,61903E+000	2,20991E-001	1,32540E+003	12	...........
	188	189	7,99942E-001	-2,65008E+000	0,00000E+000	-2,11991E+000	-1,58714E+000	2,16620E-001	1,32534E+003	12	...........
	189	190	7,99798E-001	-2,63889E+000	0,00000E+000	-2,11058E+000	-1,58044E+000	2,15715E-001	1,32532E+003	12	...........
	190	191	8,00287E-001	-2,62994E+000	0,00000E+000	-2,10471E+000	-1,57508E+000	2,14972E-001	1,32532E+003	12	...........
	191	192	8,00089E-001	-2,65244E+000	0,00000E+000	-2,12219E+000	-1,58854E+000	2,16778E-001	1,32532E+003	12	...........
	192	193	7,99894E-001	-2,59539E+000	0,00000E+000	-2,07604E+000	-1,55438E+000	2,12059E-001	1,32532E+003	12	...........
	193	194	8,00359E-001	-2,60384E+000	0,00000E+000	-2,08400E+000	-1,55944E+000	2,12714E-001	1,32532E+003	12	...........
	194	195	8,00030E-001	-2,61465E+000	0,00000E+000	-2,09180E+000	-1,56593E+000	2,13605E-001	1,32540E+003	12	...........
	195	196	7,99904E-001	-2,64190E+000	0,00000E+000	-2,11327E+000	-1,58224E+000	2,15841E-001	1,32534E+003	12	...........
	196	197	8,00118E-001	-2,62326E+000	0,00000E+000	-2,09892E+000	-1,57107E+000	2,14321E-001	1,32532E+003	12	...........
	197	198	8,00079E-001	-2,65923E+000	0,00000E+000	-2,12759E+000	-1,59262E+000	2,17360E-001	1,32532E+003	12	...........
	198	199	7,99410E-001	-2,70587E+000	0,00000E+000	-2,16310E+000	-1,62053E+000	2,21325E-001	1,32540E+003	12	...........
	199	200	8,00753E-001	-2,69208E+000	0,00000E+000	-2,15569E+000	-1,61227E+000	2,20300E-001	1,32534E+003	12	...........
	200	201	7,99829E-001	-2,66089E+000	0,00000E+000	-2,12826E+000	-1,59360E+000	2,17863E-001	1,32540E+003	12	...........
	201	202	7,99811E-001	-2,64777E+000	0,00000E+000	-2,11771E+000	-1,58574E+000	2,16919E-001	1,32542E+003	12	...........
	202	203	8,00094E-001	-2,64436E+000	0,00000E+000	-2,11574E+000	-1,58371E+000	2,16725E-001	1,32534E+003	12	...........
	203	204	7,99287E-001	-2,74534E+000	0,00000E+000	-2,19432E+000	-1,64417E+000	2,25092E-001	1,32532E+003	12	...........
	204	205	8,00321E-001	-2,63300E+000	0,00000E+000	-2,10725E+000	-1,57689E+000	2,15825E-001	1,32532E+003	12	...........
	205	206	7,99963E-001	-2,66879E+000	0,00000E+000	-2,13494E+000	-1,59833E+000	2,18758E-001	1,32532E+003	12	...........
	206	207	8,00346E-001	-2,72835E+000	0,00000E+000	-2,18363E+000	-1,63400E+000	2,23690E-001	1,32532E+003	12	...........
	207	208	7,99848E-001	-2,63375E+000	0,00000E+000	-2,10660E+000	-1,57734E+000	2,15936E-001	1,32532E+003	12	...........
	208	209	8,00488E-001	-2,68928E+000	0,00000E+000	-2,15274E+000	-1,61060E+000	2,20516E-001	1,32540E+003	12	...........
	209	210	7,99314E-001	-2,63342E+000	0,00000E+000	-2,10493E+000	-1,57713E+000	2,15906E-001	1,32542E+003	12	...........
	210	211	8,00671E-001	-2,67366E+000	0,00000E+000	-2,14072E+000	-1,60124E+000	2,19195E-001	1,32542E+003	12	...........
	211	212	7,99975E-001	-2,65132E+000	0,00000E+000	-2,12099E+000	-1,58789E+000	2,17310E-001	1,32542E+003	12	...........
	212	213	7,99350E-001	-2,68056E+000	0,00000E+000	-2,14270E+000	-1,60539E+000	2,19693E-001	1,32542E+003	12	...........
	213	214	7,99915E-001	-2,64024E+000	0,00000E+000	-2,11196E+000	-1,58122E+000	2,16341E-001	1,32542E+003	12	...........
	214	215	8,00635E-001	-2,57652E+000	0,00000E+000	-2,06285E+000	-1,54308E+000	2,11070E-001	1,32534E+003	12	...........
	215	216	7,99599E-001	-2,63614E+000	0,00000E+000	-2,10786E+000	-1,57878E+000	2,15945E-001	1,32540E+003	12	...........
	216	217	7,99979E-001	-2,65505E+000	0,00000E+000	-2,12398E+000	-1,59012E+000	2,17480E-001	1,32534E+003	12	...........
	217	218	7,99879E-001	-2,66553E+000	0,00000E+000	-2,13211E+000	-1,59639E+000	2,18326E-001	1,32532E+003	12	...........
	218	219	8,00664E-001	-2,73289E+000	0,00000E+000	-2,18813E+000	-1,63672E+000	2,23871E-001	1,32532E+003	12	...........
	219	220	7,99744E-001	-2,72761E+000	0,00000E+000	-2,18139E+000	-1,63354E+000	2,23478E-001	1,32540E+003	12	...........
	220	221	7,99582E-001	-2,70138E+000	0,00000E+000	-2,15997E+000	-1,61782E+000	2,21347E-001	1,32542E+003	12	...........
	221	222	8,00176E-001	-2,66316E+000	0,00000E+000	-2,13100E+000	-1,59497E+000	2,18196E-001	1,32534E+003	12	...........
	222	223	8,00170E-001	-2,68484E+000	0,00000E+000	-2,14833E+000	-1,60794E+000	2,19981E-001	1,32532E+003	12	...........
	223	224	7,99765E-001	-2,77414E+000	0,00000E+000	-2,21866E+000	-1,66144E+000	2,27323E-001	1,32532E+003	12	...........
	224	225	8,00487E-001	-2,68923E+000	0,00000E+000	-2,15269E+000	-1,61057E+000	2,20330E-001	1,32532E+003	12	...........
	225	226	7,99185E-001	-2,60995E+000	0,00000E+000	-2,08583E+000	-1,56311E+000	2,13770E-001	1,32546E+003	12	...........
	226	227	8,00252E-001	-2,68179E+000	0,00000E+000	-2,14610E+000	-1,60613E+000	2,19654E-001	1,32536E+003	12	...........
	227	228	8,00099E-001	-2,69972E+000	0,00000E+000	-2,16005E+000	-1,61686E+000	2,21139E-001	1,32540E+003	12	...........
	228	229	7,99747E-001	-2,61122E+000	0,00000E+000	-2,08832E+000	-1,56385E+000	2,13862E-001	1,32542E+003	12	...........
	229	230	7,99982E-001	-2,63476E+000	0,00000E+000	-2,10776E+000	-1,57795E+000	2,15809E-001	1,32542E+003	12	...........
	230	231	8,00570E-001	-2,57544E+000	0,00000E+000	-2,06182E+000	-1,54244E+000	2,10914E-001	1,32542E+003	12	...........
	231	232	7,99577E-001	-2,70885E+000	0,00000E+000	-2,16594E+000	-1,62234E+000	2,21847E-001	1,32542E+003	12	...........
	232	233	8,00020E-001	-2,63915E+000	0,00000E+000	-2,11137E+000	-1,58058E+000	2,16091E-001	1,32534E+003	12	...........
	233	234	8,00313E-001	-2,63435E+000	0,00000E+000	-2,10831E+000	-1,57773E+000	2,15680E-001	1,32532E+003	12	...........
	234	235	8,00007E-001	-2,66191E+000	0,00000E+000	-2,12955E+000	-1,59422E+000	2,17958E-001	1,32540E+003	12	...........
	235	236	7,99753E-001	-2,76160E+000	0,00000E+000	-2,20860E+000	-1,65390E+000	2,26155E-001	1,32542E+003	12	...........
	236	237	7,99891E-001	-2,57871E+000	0,00000E+000	-2,06268E+000	-1,54439E+000	2,11108E-001	1,32534E+003	12	...........
	237	238	7,99923E-001	-2,67139E+000	0,00000E+000	-2,13690E+000	-1,59988E+000	2,18674E-001	1,32540E+003	12	...........
	238	239	8,00716E-001	-2,59082E+000	0,00000E+000	-2,07451E+000	-1,55165E+000	2,12020E-001	1,32542E+003	12	...........
	239	240	7,99680E-001	-2,63867E+000	0,00000E+000	-2,11010E+000	-1,58031E+000	2,15964E-001	1,32542E+003	12	...........
	240	241	7,99721E-001	-2,64836E+000	0,00000E+000	-2,11795E+000	-1,58612E+000	2,16782E-001	1,32542E+003	12	...........
	241	242	8,00202E-001	-2,65052E+000	0,00000E+000	-2,12095E+000	-1,58739E+000	2,16985E-001	1,32542E+003	12	...........
	242	243	7,99770E-001	-2,71964E+000	0,00000E+000	-2,17509E+000	-1,62879E+000	2,22721E-001	1,32542E+003	12	...........
	243	244	8,00489E-001	-2,62509E+000	0,00000E+000	-2,10135E+000	-1,57217E+000	2,14975E-001	1,32542E+003	12	...........
	244	245	7,99576E-001	-2,65332E+000	0,00000E+000	-2,12153E+000	-1,58909E+000	2,17297E-001	1,32542E+003	12	...........
	245	246	8,00341E-001	-2,69537E+000	0,00000E+000	-2,15722E+000	-1,61428E+000	2,20768E-001	1,32542E+003	12	...........
	246	247	8,00198E-001	-2,72239E+000	0,00000E+000	-2,17845E+000	-1,63043E+000	2,23011E-001	1,32542E+003	12	...........
	247	248	7,99819E-001	-2,67075E+000	0,00000E+000	-2,13612E+000	-1,59950E+000	2,18754E-001	1,32542E+003	12	...........
	248	249	7,99425E-001	-2,61711E+000	0,00000E+000	-2,09218E+000	-1,56739E+000	2,14335E-001	1,32542E+003	12	...........
	249	250	8,00279E-001	-2,70307E+000	0,00000E+000	-2,16321E+000	-1,61887E+000	2,21356E-001	1,32542E+003	12	...........
	250	251	8,00067E-001	-2,72024E+000	0,00000E+000	-2,17637E+000	-1,62916E+000	2,22737E-001	1,32542E+003	12	...........
	251	252	7,99789E-001	-2,75387E+000	0,00000E+000	-2,20252E+000	-1,64929E+000	2,25513E-001	1,32548E+003	12	...........
	252	253	7,99923E-001	-2,66611E+000	0,00000E+000	-2,13268E+000	-1,59673E+000	2,18276E-001	1,32544E+003	12	...........
	253	254	8,00340E-001	-2,78830E+000	0,00000E+000	-2,23159E+000	-1,66990E+000	2,28338E-001	1,32542E+003	12	...........
	254	255	7,99611E-001	-2,72323E+000	0,00000E+000	-2,17752E+000	-1,63093E+000	2,22988E-001	1,32542E+003	12	...........
	255	256	8,00331E-001	-2,74222E+000	0,00000E+000	-2,19468E+000	-1,64231E+000	2,24552E-001	1,32542E+003	12	...........
	256	257	7,99841E-001	-2,63384E+000	0,00000E+000	-2,10665E+000	-1,57740E+000	2,15636E-001	1,32542E+003	12	...........
	257	258	8,00442E-001	-2,59913E+000	0,00000E+000	-2,08046E+000	-1,55664E+000	2,12723E-001	1,32548E+003	12	...........
	258	259	8,00086E-001	-2,66199E+000	0,00000E+000	-2,12982E+000	-1,59426E+000	2,17840E-001	1,32544E+003	12	...........
	259	260	8,00005E-001	-2,66302E+000	0,00000E+000	-2,13043E+000	-1,59491E+000	2,17874E-001	1,32542E+003	12	...........
	260	261	7,99929E-001	-2,72043E+000	0,00000E+000	-2,17615E+000	-1,62925E+000	2,22527E-001	1,32542E+003	12	...........
	261	262	7,99577E-001	-2,69190E+000	0,00000E+000	-2,15238E+000	-1,61218E+000	2,20146E-001	1,32548E+003	12	...........
	262	263	7,99791E-001	-2,68405E+000	0,00000E+000	-2,14668E+000	-1,60746E+000	2,19486E-001	1,32544E+003	12	...........
	263	264	8,00109E-001	-2,69623E+000	0,00000E+000	-2,15728E+000	-1,61477E+000	2,20476E-001	1,32542E+003	12	...........
	264	265	8,00175E-001	-2,72872E+000	0,00000E+000	-2,18345E+000	-1,63422E+000	2,23153E-001	1,32542E+003	12	...........
	265	266	7,99617E-001	-2,68476E+000	0,00000E+000	-2,14678E+000	-1,60790E+000	2,19519E-001	1,32542E+003	12	...........
	266	267	8,00778E-001	-2,59841E+000	0,00000E+000	-2,08075E+000	-1,55619E+000	2,12420E-001	1,32548E+003	12	...........
	267	268	7,99495E-001	-2,73607E+000	0,00000E+000	-2,18747E+000	-1,63863E+000	2,23703E-001	1,32544E+003	12	...........
	268	269	8,00521E-001	-2,63573E+000	0,00000E+000	-2,10996E+000	-1,57854E+000	2,15434E-001	1,32542E+003	12	...........
	269	270	7,99864E-001	-2,70390E+000	0,00000E+000	-2,16275E+000	-1,61938E+000	2,21031E-001	1,32542E+003	12	...........
	270	271	7,99485E-001	-2,70984E+000	0,00000E+000	-2,16647E+000	-1,62292E+000	2,21524E-001	1,32542E+003	12	...........
	271	272	8,00167E-001	-2,65014E+000	0,00000E+000	-2,12056E+000	-1,58717E+000	2,16581E-001	1,32542E+003	12	...........
	272	273	7,99927E-001	-2,65481E+000	0,00000E+000	-2,12365E+000	-1,58997E+000	2,16948E-001	1,32542E+003	12	...........
	273	274	8,00059E-001	-2,72478E+000	0,00000E+000	-2,17998E+000	-1,63187E+000	2,22654E-001	1,32548E+003	12	...........
	274	275	8,00006E-001	-2,69206E+000	0,00000E+000	-2,15367E+000	-1,61228E+000	2,19941E-001	1,32544E+003	12	...........
	275	276	8,00066E-001	-2,69038E+000	0,00000E+000	-2,15248E+000	-1,61127E+000	2,19769E-001	1,32542E+003	12	...........
	276	277	7,99882E-001	-2,70409E+000	0,00000E+000	-2,16295E+000	-1,61949E+000	2,20884E-001	1,32542E+003	12	...........
	277	278	8,00288E-001	-2,78413E+000	0,00000E+000	-2,22811E+000	-1,66740E+000	2,27469E-001	1,32548E+003	12	...........
	278	279	8,00171E-001	-2,74666E+000	0,00000E+000	-2,19779E+000	-1,64497E+000	2,24418E-001	1,32544E+003	12	...........
	279	280	8,00238E-001	-2,68798E+000	0,00000E+000	-2,15102E+000	-1,60983E+000	2,19616E-001	1,32542E+003	12	...........
	280	281	7,99580E-001	-2,70747E+000	0,00000E+000	-2,16484E+000	-1,62153E+000	2,21252E-001	1,32542E+003	12	...........
	281	282	8,00212E-001	-2,73780E+000	0,00000E+000	-2,19082E+000	-1,63967E+000	2,23765E-001	1,32542E+003	12	...........
	282	283	7,99795E-001	-2,74832E+000	0,00000E+000	-2,19810E+000	-1,64596E+000	2,24695E-001	1,32548E+003	12	...........
	283	284	7,99611E-001	-2,76423E+000	0,00000E+000	-2,21031E+000	-1,65549E+000	2,26034E-001	1,32550E+003	12	...........
	284	285	8,00202E-001	-2,69204E+000	0,00000E+000	-2,15417E+000	-1,61224E+000	2,20116E-001	1,32550E+003	12	...........
	285	286	7,99806E-001	-2,64182E+000	0,00000E+000	-2,11295E+000	-1,58220E+000	2,15984E-001	1,32544E+003	12	...........
	286	287	8,00341E-001	-2,66199E+000	0,00000E+000	-2,13050E+000	-1,59425E+000	2,17602E-001	1,32542E+003	12	...........
	287	288	7,99974E-001	-2,68961E+000	0,00000E+000	-2,15162E+000	-1,61080E+000	2,19847E-001	1,32542E+003	12	...........
	288	289	7,99985E-001	-2,65050E+000	0,00000E+000	-2,12036E+000	-1,58741E+000	2,16642E-001	1,32548E+003	12	...........
	289	290	7,99884E-001	-2,72173E+000	0,00000E+000	-2,17707E+000	-1,63003E+000	2,22486E-001	1,32544E+003	12	...........
	290	291	8,00071E-001	-2,66802E+000	0,00000E+000	-2,13461E+000	-1,59786E+000	2,18066E-001	1,32542E+003	12	...........
	291	292	7,99974E-001	-2,76334E+000	0,00000E+000	-2,21060E+000	-1,65496E+000	2,25899E-001	1,32548E+003	12	...........
	292	293	8,00098E-001	-2,73661E+000	0,00000E+000	-2,18956E+000	-1,63896E+000	2,23719E-001	1,32550E+003	12	...........
	293	294	8,00389E-001	-2,71841E+000	0,00000E+000	-2,17578E+000	-1,62806E+000	2,22228E-001	1,32550E+003	12	...........
	294	295	7,99401E-001	-2,74796E+000	0,00000E+000	-2,19672E+000	-1,64576E+000	2,24626E-001	1,32550E+003	12	...........
	295	296	7,99901E-001	-2,68777E+000	0,00000E+000	-2,14995E+000	-1,60971E+000	2,19637E-001	1,32550E+003	12	...........
	296	297	7,99844E-001	-2,61361E+000	0,00000E+000	-2,09049E+000	-1,56530E+000	2,13527E-001	1,32550E+003	12	...........
	297	298	8,00682E-001	-2,76319E+000	0,00000E+000	-2,21244E+000	-1,65487E+000	2,25811E-001	1,32550E+003	12	...........
	298	299	7,99613E-001	-2,69737E+000	0,00000E+000	-2,15685E+000	-1,61546E+000	2,20429E-001	1,32550E+003	12	...........
	299	300	7,99912E-001	-2,69463E+000	0,00000E+000	-2,15547E+000	-1,61382E+000	2,20207E-001	1,32550E+003	12	...........
	300	301	8,00225E-001	-2,63449E+000	0,00000E+000	-2,10819E+000	-1,57781E+000	2,15295E-001	1,32550E+003	12	...........
	301	302	8,00033E-001	-2,75016E+000	0,00000E+000	-2,20022E+000	-1,64706E+000	2,24799E-001	1,32550E+003	12	...........
	302	303	8,00360E-001	-2,69420E+000	0,00000E+000	-2,15633E+000	-1,61356E+000	2,20167E-001	1,32544E+003	12	...........
	303	304	8,00004E-001	-2,67409E+000	0,00000E+000	-2,13928E+000	-1,60152E+000	2,18471E-001	1,32548E+003	12	...........
	304	305	7,99968E-001	-2,69436E+000	0,00000E+000	-2,15540E+000	-1,61365E+000	2,20128E-001	1,32550E+003	12	...........
	305	306	7,99662E-001	-2,67420E+000	0,00000E+000	-2,13846E+000	-1,60160E+000	2,18488E-001	1,32550E+003	12	...........
	306	307	7,99885E-001	-2,67150E+000	0,00000E+000	-2,13689E+000	-1,59996E+000	2,18291E-001	1,32550E+003	12	...........
	307	308	7,99635E-001	-2,66589E+000	0,00000E+000	-2,13174E+000	-1,59660E+000	2,17852E-001	1,32544E+003	12	...........
	308	309	8,00440E-001	-2,61382E+000	0,00000E+000	-2,09221E+000	-1,56544E+000	2,13619E-001	1,32548E+003	12	...........
	309	310	8,00166E-001	-2,65846E+000	0,00000E+000	-2,12721E+000	-1,59215E+000	2,17333E-001	1,32550E+003	12	...........
	310	311	8,00290E-001	-2,61268E+000	0,00000E+000	-2,09090E+000	-1,56474E+000	2,13613E-001	1,32550E+003	12	...........
	311	312	7,99793E-001	-2,61200E+000	0,00000E+000	-2,08905E+000	-1,56434E+000	2,13606E-001	1,32550E+003	12	...........
	312	313	7,99959E-001	-2,65717E+000	0,00000E+000	-2,12563E+000	-1,59139E+000	2,17335E-001	1,32556E+003	12	...........
	313	314	8,00040E-001	-2,69431E+000	0,00000E+000	-2,15555E+000	-1,61361E+000	2,20403E-001	1,32558E+003	12	...........
	314	315	7,99665E-001	-2,67943E+000	0,00000E+000	-2,14265E+000	-1,60471E+000	2,19203E-001	1,32552E+003	12	...........
	315	316	7,99979E-001	-2,63715E+000	0,00000E+000	-2,10967E+000	-1,57940E+000	2,15762E-001	1,32550E+003	12	...........
	316	317	8,00162E-001	-2,69733E+000	0,00000E+000	-2,15830E+000	-1,61543E+000	2,20725E-001	1,32550E+003	12	...........
	317	318	8,00342E-001	-2,73474E+000	0,00000E+000	-2,18873E+000	-1,63784E+000	2,23840E-001	1,32550E+003	12	...........
	318	319	7,99578E-001	-2,71358E+000	0,00000E+000	-2,16972E+000	-1,62516E+000	2,22107E-001	1,32550E+003	12	...........
	319	320	8,00328E-001	-2,62432E+000	0,00000E+000	-2,10032E+000	-1,57171E+000	2,14792E-001	1,32550E+003	12	...........
	320	321	7,99984E-001	-2,67538E+000	0,00000E+000	-2,14026E+000	-1,60230E+000	2,18988E-001	1,32556E+003	12	...........
	321	322	8,00221E-001	-2,66754E+000	0,00000E+000	-2,13462E+000	-1,59759E+000	2,18349E-001	1,32552E+003	12	...........
	322	323	7,99766E-001	-2,68725E+000	0,00000E+000	-2,14917E+000	-1,60939E+000	2,19998E-001	1,32550E+003	12	...........
	323	324	7,99640E-001	-2,75926E+000	0,00000E+000	-2,20641E+000	-1,65251E+000	2,25925E-001	1,32550E+003	12	...........
	324	325	8,00540E-001	-2,70473E+000	0,00000E+000	-2,16525E+000	-1,61987E+000	2,21428E-001	1,32556E+003	12	...........
	325	326	7,99652E-001	-2,68784E+000	0,00000E+000	-2,14934E+000	-1,60974E+000	2,20032E-001	1,32552E+003	12	...........
	326	327	8,00147E-001	-2,72987E+000	0,00000E+000	-2,18430E+000	-1,63492E+000	2,23461E-001	1,32556E+003	12	...........
	327	328	7,99496E-001	-2,76469E+000	0,00000E+000	-2,21036E+000	-1,65578E+000	2,26309E-001	1,32552E+003	12	...........
	328	329	8,00749E-001	-2,72669E+000	0,00000E+000	-2,18339E+000	-1,63302E+000	2,23183E-001	1,32550E+003	12	...........
	329	330	7,99744E-001	-2,72065E+000	0,00000E+000	-2,17582E+000	-1,62940E+000	2,22685E-001	1,32550E+003	12	...........
	330	331	8,00313E-001	-2,78773E+000	0,00000E+000	-2,23106E+000	-1,66958E+000	2,28201E-001	1,32550E+003	12	...........
	331	332	7,99051E-001	-2,80013E+000	0,00000E+000	-2,23744E+000	-1,67700E+000	2,29197E-001	1,32550E+003	12	...........
	332	333	8,00860E-001	-2,73414E+000	0,00000E+000	-2,18967E+000	-1,63748E+000	2,23753E-001	1,32556E+003	12	...........
	333	334	7,99267E-001	-2,73722E+000	0,00000E+000	-2,18777E+000	-1,63932E+000	2,23972E-001	1,32558E+003	12	...........
	334	335	8,00783E-001	-2,75472E+000	0,00000E+000	-2,20594E+000	-1,64978E+000	2,25351E-001	1,32558E+003	12	...........
	335	336	7,99150E-001	-2,77572E+000	0,00000E+000	-2,21822E+000	-1,66238E+000	2,27037E-001	1,32558E+003	12	...........
	336	337	8,00330E-001	-2,80141E+000	0,00000E+000	-2,24205E+000	-1,67775E+000	2,29135E-001	1,32558E+003	12	...........
	337	338	7,99612E-001	-2,70817E+000	0,00000E+000	-2,16548E+000	-1,62192E+000	2,21483E-001	1,32558E+003	12	...........
	338	339	8,00742E-001	-2,68675E+000	0,00000E+000	-2,15139E+000	-1,60910E+000	2,19739E-001	1,32558E+003	12	...........
	339	340	7,99357E-001	-2,77575E+000	0,00000E+000	-2,21882E+000	-1,66240E+000	2,27080E-001	1,32558E+003	12	...........
	340	341	8,00033E-001	-2,63849E+000	0,00000E+000	-2,11088E+000	-1,58019E+000	2,15813E-001	1,32558E+003	12	...........
	341	342	8,00783E-001	-2,67932E+000	0,00000E+000	-2,14556E+000	-1,60465E+000	2,19160E-001	1,32558E+003	12	...........
	342	343	7,99651E-001	-2,67300E+000	0,00000E+000	-2,13747E+000	-1,60088E+000	2,18622E-001	1,32558E+003	12	...........
	343	344	8,00062E-001	-2,67088E+000	0,00000E+000	-2,13687E+000	-1,59959E+000	2,18429E-001	1,32552E+003	12	...........
	344	345	7,99628E-001	-2,71524E+000	0,00000E+000	-2,17118E+000	-1,62615E+000	2,22082E-001	1,32556E+003	12	...........
	345	346	8,00328E-001	-2,65151E+000	0,00000E+000	-2,12208E+000	-1,58800E+000	2,16840E-001	1,32558E+003	12	...........
	346	347	7,99830E-001	-2,68682E+000	0,00000E+000	-2,14900E+000	-1,60914E+000	2,19753E-001	1,32558E+003	12	...........
	347	348	7,99743E-001	-2,70187E+000	0,00000E+000	-2,16080E+000	-1,61814E+000	2,20988E-001	1,32558E+003	12	...........
	348	349	8,00085E-001	-2,66394E+000	0,00000E+000	-2,13138E+000	-1,59543E+000	2,17873E-001	1,32558E+003	12	...........
	349	350	7,99958E-001	-2,63382E+000	0,00000E+000	-2,10695E+000	-1,57740E+000	2,15423E-001	1,32552E+003	12	...........
	350	351	7,99862E-001	-2,68501E+000	0,00000E+000	-2,14764E+000	-1,60805E+000	2,19600E-001	1,32556E+003	12	...........
	351	352	8,00293E-001	-2,70262E+000	0,00000E+000	-2,16288E+000	-1,61861E+000	2,21040E-001	1,32558E+003	12	...........
	352	353	7,99959E-001	-2,64938E+000	0,00000E+000	-2,11940E+000	-1,58672E+000	2,16662E-001	1,32558E+003	12	...........
	353	354	8,00238E-001	-2,62117E+000	0,00000E+000	-2,09756E+000	-1,56982E+000	2,14357E-001	1,32558E+003	12	...........
	354	355	8,00345E-001	-2,65084E+000	0,00000E+000	-2,12159E+000	-1,58759E+000	2,16798E-001	1,32558E+003	12	...........
	355	356	7,99973E-001	-2,62747E+000	0,00000E+000	-2,10190E+000	-1,57360E+000	2,14875E-001	1,32558E+003	12	...........
	356	357	7,99808E-001	-2,71155E+000	0,00000E+000	-2,16872E+000	-1,62395E+000	2,21764E-001	1,32565E+003	12	...........
	357	358	7,99380E-001	-2,71441E+000	0,00000E+000	-2,16984E+000	-1,62567E+000	2,21996E-001	1,32560E+003	12	...........
	358	359	8,00298E-001	-2,68755E+000	0,00000E+000	-2,15084E+000	-1,60957E+000	2,19769E-001	1,32558E+003	12	...........
	359	360	8,00555E-001	-2,75541E+000	0,00000E+000	-2,20586E+000	-1,65021E+000	2,25315E-001	1,32565E+003	12	...........
	360	361	7,99429E-001	-2,74883E+000	0,00000E+000	-2,19749E+000	-1,64629E+000	2,24792E-001	1,32560E+003	12	...........
	361	362	7,99582E-001	-2,72620E+000	0,00000E+000	-2,17982E+000	-1,63272E+000	2,22967E-001	1,32558E+003	12	...........
	362	363	8,00326E-001	-2,66437E+000	0,00000E+000	-2,13237E+000	-1,59570E+000	2,17919E-001	1,32558E+003	12	...........
	363	364	7,99839E-001	-2,69987E+000	0,00000E+000	-2,15946E+000	-1,61695E+000	2,20886E-001	1,32558E+003	12	...........
	364	365	8,00498E-001	-2,58828E+000	0,00000E+000	-2,07191E+000	-1,55013E+000	2,11728E-001	1,32558E+003	12	...........
	365	366	7,99775E-001	-2,64640E+000	0,00000E+000	-2,11653E+000	-1,58496E+000	2,16489E-001	1,32565E+003	12	...........
	366	367	7,99998E-001	-2,73825E+000	0,00000E+000	-2,19060E+000	-1,63995E+000	2,24028E-001	1,32560E+003	12	...........
	367	368	7,99969E-001	-2,62643E+000	0,00000E+000	-2,10106E+000	-1,57298E+000	2,14841E-001	1,32558E+003	12	...........
	368	369	8,00525E-001	-2,65472E+000	0,00000E+000	-2,12517E+000	-1,58990E+000	2,17166E-001	1,32565E+003	12	...........
	369	370	7,99526E-001	-2,72006E+000	0,00000E+000	-2,17476E+000	-1,62904E+000	2,22530E-001	1,32560E+003	12	...........
	370	371	7,99639E-001	-2,65172E+000	0,00000E+000	-2,12042E+000	-1,58811E+000	2,16904E-001	1,32558E+003	12	...........
	371	372	8,00200E-001	-2,66562E+000	0,00000E+000	-2,13303E+000	-1,59643E+000	2,18024E-001	1,32558E+003	12	...........
	372	373	8,00555E-001	-2,65465E+000	0,00000E+000	-2,12519E+000	-1,58989E+000	2,17119E-001	1,32558E+003	12	...........
	373	374	7,99522E-001	-2,76908E+000	0,00000E+000	-2,21394E+000	-1,65840E+000	2,26498E-001	1,32558E+003	12	...........
	374	375	8,00523E-001	-2,77427E+000	0,00000E+000	-2,22086E+000	-1,66150E+000	2,26927E-001	1,32558E+003	12	...........
	375	376	7,99771E-001	-2,72714E+000	0,00000E+000	-2,18108E+000	-1,63327E+000	2,23079E-001	1,32565E+003	12	...........
	376	377	7,99569E-001	-2,72115E+000	0,00000E+000	-2,17575E+000	-1,62970E+000	2,22599E-001	1,32560E+003	12	...........
	377	378	8,00554E-001	-2,71649E+000	0,00000E+000	-2,17470E+000	-1,62691E+000	2,22204E-001	1,32558E+003	12	...........
	378	379	7,99453E-001	-2,76478E+000	0,00000E+000	-2,21031E+000	-1,65582E+000	2,26189E-001	1,32558E+003	12	...........
	379	380	8,00544E-001	-2,73370E+000	0,00000E+000	-2,18845E+000	-1,63721E+000	2,23643E-001	1,32558E+003	12	...........
	380	381	7,99706E-001	-2,66748E+000	0,00000E+000	-2,13320E+000	-1,59757E+000	2,18199E-001	1,32558E+003	12	...........
	381	382	7,99918E-001	-2,70835E+000	0,00000E+000	-2,16646E+000	-1,62203E+000	2,21556E-001	1,32558E+003	12	...........
	382	383	8,00454E-001	-2,62578E+000	0,00000E+000	-2,10181E+000	-1,57259E+000	2,14767E-001	1,32565E+003	12	...........
	383	384	7,99855E-001	-2,63157E+000	0,00000E+000	-2,10488E+000	-1,57606E+000	2,15228E-001	1,32567E+003	12	...........
	384	385	8,00002E-001	-2,65831E+000	0,00000E+000	-2,12665E+000	-1,59205E+000	2,17419E-001	1,32560E+003	12	...........
	385	386	8,00154E-001	-2,70174E+000	0,00000E+000	-2,16181E+000	-1,61807E+000	2,20996E-001	1,32558E+003	12	...........
	386	387	7,99644E-001	-2,63038E+000	0,00000E+000	-2,10337E+000	-1,57534E+000	2,15194E-001	1,32558E+003	12	...........
	387	388	7,99744E-001	-2,68316E+000	0,00000E+000	-2,14584E+000	-1,60695E+000	2,19533E-001	1,32558E+003	12	...........
	388	389	8,00672E-001	-2,66531E+000	0,00000E+000	-2,13404E+000	-1,59626E+000	2,18050E-001	1,32558E+003	12	...........
	389	390	7,99382E-001	-2,73707E+000	0,00000E+000	-2,18797E+000	-1,63923E+000	2,23911E-001	1,32558E+003	12	...........
	390	391	8,00500E-001	-2,72990E+000	0,00000E+000	-2,18528E+000	-1,63493E+000	2,23326E-001	1,32565E+003	12	...........
	391	392	7,99589E-001	-2,73751E+000	0,00000E+000	-2,18888E+000	-1,63951E+000	2,23948E-001	1,32567E+003	12	...........
	392	393	7,99749E-001	-2,70238E+000	0,00000E+000	-2,16122E+000	-1,61847E+000	2,21071E-001	1,32567E+003	12	...........
	393	394	8,00359E-001	-2,62840E+000	0,00000E+000	-2,10366E+000	-1,57417E+000	2,14995E-001	1,32560E+003	12	...........
	394	395	7,99667E-001	-2,70029E+000	0,00000E+000	-2,15934E+000	-1,61721E+000	2,20918E-001	1,32565E+003	12	...........
	395	396	8,00077E-001	-2,65414E+000	0,00000E+000	-2,12352E+000	-1,58957E+000	2,17126E-001	1,32567E+003	12	...........
	396	397	8,00010E-001	-2,65135E+000	0,00000E+000	-2,12110E+000	-1,58791E+000	2,16891E-001	1,32567E+003	12	...........
	397	398	8,00126E-001	-2,62483E+000	0,00000E+000	-2,10020E+000	-1,57202E+000	2,14708E-001	1,32567E+003	12	...........
	398	399	8,00379E-001	-2,64968E+000	0,00000E+000	-2,12075E+000	-1,58690E+000	2,16741E-001	1,32567E+003	12	...........
	399	400	7,99706E-001	-2,73130E+000	0,00000E+000	-2,18424E+000	-1,63577E+000	2,23423E-001	1,32567E+003	12	...........
	400	401	8,00239E-001	-2,68913E+000	0,00000E+000	-2,15195E+000	-1,61053E+000	2,19967E-001	1,32567E+003	12	...........
	401	402	7,99387E-001	-2,68089E+000	0,00000E+000	-2,14307E+000	-1,60559E+000	2,19302E-001	1,32567E+003	12	...........
	402	403	8,00319E-001	-2,75659E+000	0,00000E+000	-2,20615E+000	-1,65092E+000	2,25534E-001	1,32567E+003	12	...........
	403	404	7,99977E-001	-2,63548E+000	0,00000E+000	-2,10832E+000	-1,57840E+000	2,15576E-001	1,32567E+003	12	...........
	404	405	8,00202E-001	-2,72415E+000	0,00000E+000	-2,17987E+000	-1,63148E+000	2,22855E-001	1,32567E+003	12	...........
	405	406	8,00304E-001	-2,64891E+000	0,00000E+000	-2,11993E+000	-1,58644E+000	2,16668E-001	1,32567E+003	12	...........
	406	407	7,99359E-001	-2,66535E+000	0,00000E+000	-2,13057E+000	-1,59627E+000	2,18052E-001	1,32567E+003	12	...........
	407	408	7,99848E-001	-2,61165E+000	0,00000E+000	-2,08893E+000	-1,56412E+000	2,13676E-001	1,32567E+003	12	...........
	408	409	8,00675E-001	-2,71652E+000	0,00000E+000	-2,17505E+000	-1,62691E+000	2,22316E-001	1,32567E+003	12	...........
	409	410	7,99673E-001	-2,70827E+000	0,00000E+000	-2,16573E+000	-1,62198E+000	2,21627E-001	1,32567E+003	12	...........
	410	411	8,00375E-001	-2,70407E+000	0,00000E+000	-2,16427E+000	-1,61948E+000	2,21248E-001	1,32567E+003	12	...........
	411	412	7,99884E-001	-2,61492E+000	0,00000E+000	-2,09163E+000	-1,56609E+000	2,13905E-001	1,32567E+003	12	...........
	412	413	7,99530E-001	-2,67949E+000	0,00000E+000	-2,14233E+000	-1,60475E+000	2,19202E-001	1,32567E+003	12	...........
	413	414	8,00752E-001	-2,73690E+000	0,00000E+000	-2,19158E+000	-1,63914E+000	2,23898E-001	1,32567E+003	12	...........
	414	415	7,99481E-001	-2,70018E+000	0,00000E+000	-2,15874E+000	-1,61714E+000	2,20848E-001	1,32567E+003	12	...........
	415	416	8,00104E-001	-2,60646E+000	0,00000E+000	-2,08544E+000	-1,56101E+000	2,13121E-001	1,32567E+003	12	...........
	416	417	7,99706E-001	-2,66860E+000	0,00000E+000	-2,13410E+000	-1,59823E+000	2,18204E-001	1,32567E+003	12	...........
	417	418	7,99551E-001	-2,64937E+000	0,00000E+000	-2,11831E+000	-1,58672E+000	2,16618E-001	1,32573E+003	12	...........
	418	419	8,00392E-001	-2,62691E+000	0,00000E+000	-2,10256E+000	-1,57326E+000	2,14752E-001	1,32569E+003	12	...........
	419	420	8,00206E-001	-2,59325E+000	0,00000E+000	-2,07513E+000	-1,55310E+000	2,11947E-001	1,32573E+003	12	...........
	420	421	8,00251E-001	-2,61449E+000	0,00000E+000	-2,09225E+000	-1,56582E+000	2,13637E-001	1,32575E+003	12	...........
	421	422	8,00201E-001	-2,76358E+000	0,00000E+000	-2,21142E+000	-1,65511E+000	2,25837E-001	1,32575E+003	12	...........
	422	423	7,98984E-001	-2,58158E+000	0,00000E+000	-2,06264E+000	-1,54613E+000	2,10888E-001	1,32569E+003	12	...........
	423	424	8,00504E-001	-2,62106E+000	0,00000E+000	-2,09817E+000	-1,56977E+000	2,14135E-001	1,32567E+003	12	...........
	424	425	8,00065E-001	-2,63770E+000	0,00000E+000	-2,11033E+000	-1,57973E+000	2,15486E-001	1,32567E+003	12	...........
	425	426	7,99862E-001	-2,59765E+000	0,00000E+000	-2,07777E+000	-1,55575E+000	2,12224E-001	1,32573E+003	12	...........
	426	427	8,00022E-001	-2,59279E+000	0,00000E+000	-2,07428E+000	-1,55283E+000	2,11841E-001	1,32575E+003	12	...........
	427	428	8,00088E-001	-2,57338E+000	0,00000E+000	-2,05893E+000	-1,54122E+000	2,10241E-001	1,32575E+003	12	...........
	428	429	7,99836E-001	-2,68023E+000	0,00000E+000	-2,14375E+000	-1,60520E+000	2,19059E-001	1,32575E+003	12	...........
	429	430	8,00017E-001	-2,57068E+000	0,00000E+000	-2,05658E+000	-1,53960E+000	2,10094E-001	1,32575E+003	12	...........
	430	431	8,00073E-001	-2,66982E+000	0,00000E+000	-2,13605E+000	-1,59896E+000	2,18238E-001	1,32569E+003	12	...........
	431	432	8,00217E-001	-2,69698E+000	0,00000E+000	-2,15817E+000	-1,61524E+000	2,20481E-001	1,32567E+003	12	...........
	432	433	8,00395E-001	-2,65226E+000	0,00000E+000	-2,12286E+000	-1,58843E+000	2,16854E-001	1,32567E+003	12	...........
	433	434	7,99266E-001	-2,56377E+000	0,00000E+000	-2,04913E+000	-1,53545E+000	2,09595E-001	1,32573E+003	12	...........
	434	435	7,99940E-001	-2,63627E+000	0,00000E+000	-2,10886E+000	-1,57887E+000	2,15516E-001	1,32581E+003	12	...........
	435	436	8,00218E-001	-2,62954E+000	0,00000E+000	-2,10421E+000	-1,57483E+000	2,14942E-001	1,32577E+003	12	...........
	436	437	8,00529E-001	-2,65720E+000	0,00000E+000	-2,12716E+000	-1,59140E+000	2,17196E-001	1,32575E+003	12	...........
	437	438	7,99403E-001	-2,61056E+000	0,00000E+000	-2,08689E+000	-1,56349E+000	2,13364E-001	1,32575E+003	12	...........
	438	439	7,99851E-001	-2,62024E+000	0,00000E+000	-2,09580E+000	-1,56927E+000	2,14135E-001	1,32575E+003	12	...........
	439	440	8,00284E-001	-2,68564E+000	0,00000E+000	-2,14927E+000	-1,60843E+000	2,19468E-001	1,32575E+003	12	...........
	440	441	7,99989E-001	-2,70642E+000	0,00000E+000	-2,16511E+000	-1,62087E+000	2,21107E-001	1,32575E+003	12	...........
	441	442	8,00544E-001	-2,68700E+000	0,00000E+000	-2,15106E+000	-1,60926E+000	2,19490E-001	1,32575E+003	12	...........
	442	443	7,99817E-001	-2,66181E+000	0,00000E+000	-2,12896E+000	-1,59418E+000	2,17400E-001	1,32575E+003	12	...........
	443	444	7,99588E-001	-2,56893E+000	0,00000E+000	-2,05408E+000	-1,53854E+000	2,09771E-001	1,32575E+003	12	...........
	444	445	8,00450E-001	-2,60664E+000	0,00000E+000	-2,08649E+000	-1,56114E+000	2,12836E-001	1,32575E+003	12	...........
	445	446	8,00058E-001	-2,65048E+000	0,00000E+000	-2,12054E+000	-1,58738E+000	2,16408E-001	1,32575E+003	12	...........
	446	447	7,99804E-001	-2,64604E+000	0,00000E+000	-2,11632E+000	-1,58473E+000	2,16045E-001	1,32575E+003	12	...........
	447	448	7,99534E-001	-2,66434E+000	0,00000E+000	-2,13023E+000	-1,59568E+000	2,17556E-001	1,32575E+003	12	...........
	448	449	8,00266E-001	-2,65404E+000	0,00000E+000	-2,12393E+000	-1,58950E+000	2,16727E-001	1,32575E+003	12	...........
	449	450	8,00368E-001	-2,63961E+000	0,00000E+000	-2,11266E+000	-1,58088E+000	2,15558E-001	1,32575E+003	12	...........
	450	451	7,99458E-001	-2,56713E+000	0,00000E+000	-2,05231E+000	-1,53747E+000	2,09614E-001	1,32575E+003	12	...........
	451	452	8,00151E-001	-2,59342E+000	0,00000E+000	-2,07512E+000	-1,55322E+000	2,11762E-001	1,32575E+003	12	...........
	452	453	7,99554E-001	-2,56754E+000	0,00000E+000	-2,05288E+000	-1,53772E+000	2,09639E-001	1,32575E+003	12	...........
	453	454	8,00789E-001	-2,56012E+000	0,00000E+000	-2,05011E+000	-1,53328E+000	2,09011E-001	1,32575E+003	12	...........
	454	455	7,99599E-001	-2,56564E+000	0,00000E+000	-2,05149E+000	-1,53657E+000	2,09468E-001	1,32575E+003	12	...........
	455	456	8,00495E-001	-2,65472E+000	0,00000E+000	-2,12509E+000	-1,58992E+000	2,16731E-001	1,32581E+003	12	...........
	456	457	7,99755E-001	-2,70561E+000	0,00000E+000	-2,16382E+000	-1,62040E+000	2,20871E-001	1,32583E+003	12	...........
	457	458	7,99930E-001	-2,65834E+000	0,00000E+000	-2,12648E+000	-1,59209E+000	2,16946E-001	1,32577E+003	12	...........
	458	459	8,00128E-001	-2,59453E+000	0,00000E+000	-2,07595E+000	-1,55388E+000	2,11672E-001	1,32575E+003	12	...........
	459	460	7,99656E-001	-2,68403E+000	0,00000E+000	-2,14630E+000	-1,60750E+000	2,18961E-001	1,32575E+003	12	...........
	460	461	7,99933E-001	-2,68406E+000	0,00000E+000	-2,14706E+000	-1,60748E+000	2,18963E-001	1,32575E+003	12	...........
	461	462	7,99806E-001	-2,66616E+000	0,00000E+000	-2,13241E+000	-1,59677E+000	2,17476E-001	1,32575E+003	12	...........
