EXPLAIN
TAG	PWR800_POTENTIOSTATIC
TITLE	LABEL	PWRPOTSTAT_ps200_zn16_paa1_v08	Test &Identifier
DATE	LABEL	12.11.2018	Date
TIME	LABEL	19:56:07	Time
NOTES	NOTES	1	&Notes...
	
PSTAT	PSTAT	IFC5000-03531	Potentiostat
CAPACITY	QUANT	1,00000E+000	Capacity (A-hr)
CELLTYPE	SELECTOR	0	&Cell Type
WORKINGCONNECTION	SELECTOR	0	&Working Lead
MAXI	QUANT	5,00000E+000	Max Current (A)
VOLTAGE	QUANT	8,00000E-001	Voltage (V)
MAXTIME	VARIABLEANDUNITS	3,60000E+003	s	1,00000E+000	hour(s)	Max Time
SAMPLETIME	QUANT	1,00000E+000	Sa&mple Period (s)
STOPTHRESH	VARIABLEANDUNITS	5,00000E+000	s	5,00000E+000	second(s)	Stop At Threshold
STOPAT1	MULTIPARAM	2	5,00000E+000	Stop At &1	|Current| > Limit	A
STOPAT2	MULTIPARAM	0	0,00000E+000	Stop At &2	None	N/A
AESBHCSelector	TOGGLE	F	Save Both Half Cells
IRCOMP	TOGGLE	F	IR Measure
EOC	QUANT	0	Open Circuit (V)
SEQUENCER	TOGGLE	TRUE	Run as Sequence
PSTATMODEL	IQUANT	53	Pstat Model
PSTATSECTION	LABEL	IFC5000-03531	Pstat Section
PSTATSERIALNO	LABEL	03531	Pstat Serial Number
CTRLMODE	IQUANT	0	Control Mode
ELECTROMETER	IQUANT	0	RE=0 or CS=1
IESTAB	IQUANT	0	I/E Stability
CASPEED	IQUANT	4	Control Amp Speed
CONVENTION	IQUANT	1	Current Convention
ICHRANGE	IQUANT	2	Ich Range
ICHRANGEMODE	TOGGLE	T	Ich Auto Range
ICHOFFSETENABLE	TOGGLE	F	Ich Offset Enable
ICHOFFSET	QUANT	0	Ich Offset (V)
ICHFILTER	IQUANT	1	Ich Filter
VCHRANGE	IQUANT	2	Vch Range
VCHRANGEMODE	TOGGLE	T	Vch Auto Range
VCHOFFSETENABLE	TOGGLE	F	Vch Offset Enable
VCHOFFSET	QUANT	0	Vch Offset (V)
VCHFILTER	IQUANT	1	Vch Filter
IERANGELOWERLIMIT	IQUANT	9	I/E Range Lower Limit
IERANGEMODE	TOGGLE	F	I/E AutoRange
IERANGE	IQUANT	12	I/E Range
ACHSELECT	IQUANT	1	Ach Select
ACHRANGE	IQUANT	2	Ach Range
ACHOFFSETENABLE	TOGGLE	F	Ach Offset Enable
ACHOFFSET	QUANT	0	Ach Offset (V)
ACHFILTER	IQUANT	1	Ach Filter
SENSECABLEID	IQUANT	14	Sense Cable ID
PWRCABLEID	IQUANT	7	Power Cable ID
DCCALDATE	LABEL	5/31/2018	DC Calibration Date
ACCALDATE	LABEL	5/15/2017	AC Calibration Date
FRAMEWORKVERSION	QUANT	7,06	Framework Version
INSTRUMENTVERSION	LABEL	4.30	Instrument Version
CURVE	TABLE	53
	Pt	T	Vf	Im	Vu	Pwr	Sig	Ach	Temp	IERange	Over
	#	s	V	A	V	W	V	V	deg C	#	bits
	0	1	8,36195E-001	-6,67843E-001	0,00000E+000	-5,58446E-001	-4,00181E-001	5,02564E-002	1,32532E+003	12	..........a
	1	2	7,98099E-001	-5,90038E-001	0,00000E+000	-4,70909E-001	-3,53594E-001	4,39278E-002	1,32484E+003	12	..........a
	2	3	7,96066E-001	-5,11393E-001	0,00000E+000	-4,07103E-001	-3,06495E-001	3,65521E-002	1,32459E+003	12	..........a
	3	4	7,98469E-001	-4,45725E-001	0,00000E+000	-3,55898E-001	-2,67174E-001	3,10939E-002	1,32507E+003	12	..........a
	4	5	7,96976E-001	-4,15123E-001	0,00000E+000	-3,30843E-001	-2,48874E-001	2,88423E-002	1,32583E+003	12	..........a
	5	6	7,99212E-001	-3,98272E-001	0,00000E+000	-3,18304E-001	-2,38794E-001	2,84383E-002	1,32581E+003	12	..........a
	6	7	8,01032E-001	-3,93126E-001	0,00000E+000	-3,14906E-001	-2,35710E-001	2,87199E-002	1,32577E+003	12	..........a
	7	8	7,98580E-001	-3,95844E-001	0,00000E+000	-3,16113E-001	-2,37335E-001	2,80116E-002	1,32583E+003	12	..........a
	8	9	8,00667E-001	-3,76215E-001	0,00000E+000	-3,01223E-001	-2,25556E-001	2,67568E-002	1,32583E+003	12	..........a
	9	10	7,99084E-001	-3,77615E-001	0,00000E+000	-3,01746E-001	-2,26415E-001	2,65400E-002	1,32583E+003	12	..........a
	10	11	8,00280E-001	-3,70784E-001	0,00000E+000	-2,96731E-001	-2,22338E-001	2,60969E-002	1,32583E+003	12	..........a
	11	12	8,00508E-001	-3,69119E-001	0,00000E+000	-2,95483E-001	-2,21331E-001	2,62794E-002	1,32583E+003	12	..........a
	12	13	8,00437E-001	-3,72448E-001	0,00000E+000	-2,98121E-001	-2,23320E-001	2,61895E-002	1,32581E+003	12	..........a
	13	14	7,98948E-001	-3,71271E-001	0,00000E+000	-2,96627E-001	-2,22617E-001	2,60316E-002	1,32577E+003	12	..........a
	14	15	7,98611E-001	-3,62592E-001	0,00000E+000	-2,89570E-001	-2,17397E-001	2,65809E-002	1,32583E+003	12	..........a
	15	16	8,02197E-001	-3,74548E-001	0,00000E+000	-3,00461E-001	-2,24590E-001	2,62841E-002	1,32583E+003	12	..........a
	16	17	7,99321E-001	-3,68238E-001	0,00000E+000	-2,94340E-001	-2,20806E-001	2,60201E-002	1,32583E+003	12	..........a
	17	18	7,99072E-001	-3,49834E-001	0,00000E+000	-2,79542E-001	-2,09768E-001	2,52201E-002	1,32583E+003	12	..........a
	18	19	8,00845E-001	-3,48139E-001	0,00000E+000	-2,78805E-001	-2,08768E-001	2,45226E-002	1,32583E+003	12	..........a
	19	20	7,99978E-001	-3,57453E-001	0,00000E+000	-2,85954E-001	-2,14335E-001	2,52916E-002	1,32583E+003	12	..........a
	20	21	8,00085E-001	-3,50564E-001	0,00000E+000	-2,80481E-001	-2,10202E-001	2,52416E-002	1,32583E+003	12	..........a
	21	22	8,01250E-001	-3,57205E-001	0,00000E+000	-2,86210E-001	-2,14193E-001	2,45944E-002	1,32581E+003	12	..........a
	22	23	7,99347E-001	-3,56567E-001	0,00000E+000	-2,85021E-001	-2,13824E-001	2,49716E-002	1,32577E+003	12	..........a
	23	24	8,00187E-001	-3,67142E-001	0,00000E+000	-2,93783E-001	-2,20150E-001	2,65554E-002	1,32581E+003	12	..........a
	24	25	7,99355E-001	-3,61157E-001	0,00000E+000	-2,88693E-001	-2,16566E-001	2,51388E-002	1,32577E+003	12	..........a
	25	26	8,00823E-001	-3,58910E-001	0,00000E+000	-2,87423E-001	-2,15203E-001	2,48555E-002	1,32583E+003	12	..........a
	26	27	7,99199E-001	-3,67786E-001	0,00000E+000	-2,93934E-001	-2,20518E-001	2,58972E-002	1,32583E+003	12	..........a
	27	28	7,97572E-001	-3,53856E-001	0,00000E+000	-2,82226E-001	-2,12173E-001	2,50662E-002	1,32583E+003	12	..........a
	28	29	8,02014E-001	-3,51887E-001	0,00000E+000	-2,82218E-001	-2,10984E-001	2,48365E-002	1,32581E+003	12	..........a
	29	30	7,99629E-001	-3,61210E-001	0,00000E+000	-2,88834E-001	-2,16592E-001	2,56773E-002	1,32575E+003	12	..........a
	30	31	7,99960E-001	-3,60293E-001	0,00000E+000	-2,88220E-001	-2,16056E-001	2,55548E-002	1,32577E+003	12	..........a
	31	32	8,01219E-001	-3,50931E-001	0,00000E+000	-2,81172E-001	-2,10432E-001	2,42971E-002	1,32583E+003	12	..........a
	32	33	7,99498E-001	-3,61304E-001	0,00000E+000	-2,88861E-001	-2,16630E-001	2,54164E-002	1,32583E+003	12	..........a
	33	34	8,00634E-001	-3,55397E-001	0,00000E+000	-2,84543E-001	-2,13114E-001	2,53995E-002	1,32581E+003	12	..........a
	34	35	7,99981E-001	-3,59510E-001	0,00000E+000	-2,87601E-001	-2,15584E-001	2,52288E-002	1,32575E+003	12	..........a
	35	36	7,99306E-001	-3,63149E-001	0,00000E+000	-2,90267E-001	-2,17741E-001	2,57568E-002	1,32575E+003	12	..........a
	36	37	7,99746E-001	-3,52136E-001	0,00000E+000	-2,81619E-001	-2,11148E-001	2,46518E-002	1,32577E+003	12	..........a
	37	38	8,01052E-001	-3,65166E-001	0,00000E+000	-2,92517E-001	-2,18955E-001	2,57572E-002	1,32581E+003	12	..........a
	38	39	7,98677E-001	-3,63066E-001	0,00000E+000	-2,89973E-001	-2,17699E-001	2,53909E-002	1,32577E+003	12	..........a
	39	40	8,01668E-001	-3,63203E-001	0,00000E+000	-2,91169E-001	-2,17793E-001	2,54775E-002	1,32583E+003	12	..........a
	40	41	7,99073E-001	-3,62785E-001	0,00000E+000	-2,89892E-001	-2,17548E-001	2,60594E-002	1,32583E+003	12	..........a
	41	42	7,99480E-001	-3,55571E-001	0,00000E+000	-2,84272E-001	-2,13215E-001	2,52578E-002	1,32581E+003	12	..........a
	42	43	8,02648E-001	-3,58809E-001	0,00000E+000	-2,87998E-001	-2,15147E-001	2,53286E-002	1,32577E+003	12	..........a
	43	44	7,97741E-001	-3,55489E-001	0,00000E+000	-2,83588E-001	-2,13174E-001	2,55802E-002	1,32581E+003	12	..........a
	44	45	7,99834E-001	-3,50082E-001	0,00000E+000	-2,80008E-001	-2,09933E-001	2,47087E-002	1,32577E+003	12	..........a
	45	46	8,00365E-001	-3,49593E-001	0,00000E+000	-2,79802E-001	-2,09629E-001	2,41968E-002	1,32583E+003	12	..........a
	46	47	7,99361E-001	-3,64076E-001	0,00000E+000	-2,91029E-001	-2,18309E-001	2,58061E-002	1,32583E+003	12	..........a
	47	48	8,01074E-001	-3,60373E-001	0,00000E+000	-2,88686E-001	-2,16083E-001	2,47789E-002	1,32581E+003	12	..........a
	48	49	7,99422E-001	-3,62484E-001	0,00000E+000	-2,89778E-001	-2,17351E-001	2,55222E-002	1,32577E+003	12	..........a
	49	50	7,99754E-001	-3,54854E-001	0,00000E+000	-2,83796E-001	-2,12776E-001	2,56232E-002	1,32581E+003	12	..........a
	50	51	7,99960E-001	-3,51184E-001	0,00000E+000	-2,80933E-001	-2,10592E-001	2,46478E-002	1,32577E+003	12	..........a
	51	52	8,01432E-001	-3,55302E-001	0,00000E+000	-2,84750E-001	-2,13056E-001	2,54441E-002	1,32583E+003	12	..........a
	52	53	7,99521E-001	-3,55855E-001	0,00000E+000	-2,84514E-001	-2,13393E-001	2,51111E-002	1,32581E+003	12	..........a
