EXPLAIN
TAG	PWR800_POTENTIOSTATIC
TITLE	LABEL	PWRPOTSTAT_ps100_zn16_paa1_v08	Test &Identifier
DATE	LABEL	12.11.2018	Date
TIME	LABEL	19:53:44	Time
NOTES	NOTES	1	&Notes...
	
PSTAT	PSTAT	IFC5000-03531	Potentiostat
CAPACITY	QUANT	1,00000E+000	Capacity (A-hr)
CELLTYPE	SELECTOR	0	&Cell Type
WORKINGCONNECTION	SELECTOR	0	&Working Lead
MAXI	QUANT	5,00000E+000	Max Current (A)
VOLTAGE	QUANT	8,00000E-001	Voltage (V)
MAXTIME	VARIABLEANDUNITS	3,60000E+003	s	1,00000E+000	hour(s)	Max Time
SAMPLETIME	QUANT	1,00000E+000	Sa&mple Period (s)
STOPTHRESH	VARIABLEANDUNITS	5,00000E+000	s	5,00000E+000	second(s)	Stop At Threshold
STOPAT1	MULTIPARAM	2	5,00000E+000	Stop At &1	|Current| > Limit	A
STOPAT2	MULTIPARAM	0	0,00000E+000	Stop At &2	None	N/A
AESBHCSelector	TOGGLE	F	Save Both Half Cells
IRCOMP	TOGGLE	F	IR Measure
EOC	QUANT	0	Open Circuit (V)
SEQUENCER	TOGGLE	TRUE	Run as Sequence
PSTATMODEL	IQUANT	53	Pstat Model
PSTATSECTION	LABEL	IFC5000-03531	Pstat Section
PSTATSERIALNO	LABEL	03531	Pstat Serial Number
CTRLMODE	IQUANT	0	Control Mode
ELECTROMETER	IQUANT	0	RE=0 or CS=1
IESTAB	IQUANT	0	I/E Stability
CASPEED	IQUANT	4	Control Amp Speed
CONVENTION	IQUANT	1	Current Convention
ICHRANGE	IQUANT	2	Ich Range
ICHRANGEMODE	TOGGLE	T	Ich Auto Range
ICHOFFSETENABLE	TOGGLE	F	Ich Offset Enable
ICHOFFSET	QUANT	0	Ich Offset (V)
ICHFILTER	IQUANT	1	Ich Filter
VCHRANGE	IQUANT	2	Vch Range
VCHRANGEMODE	TOGGLE	T	Vch Auto Range
VCHOFFSETENABLE	TOGGLE	F	Vch Offset Enable
VCHOFFSET	QUANT	0	Vch Offset (V)
VCHFILTER	IQUANT	1	Vch Filter
IERANGELOWERLIMIT	IQUANT	9	I/E Range Lower Limit
IERANGEMODE	TOGGLE	F	I/E AutoRange
IERANGE	IQUANT	12	I/E Range
ACHSELECT	IQUANT	1	Ach Select
ACHRANGE	IQUANT	2	Ach Range
ACHOFFSETENABLE	TOGGLE	F	Ach Offset Enable
ACHOFFSET	QUANT	0	Ach Offset (V)
ACHFILTER	IQUANT	1	Ach Filter
SENSECABLEID	IQUANT	14	Sense Cable ID
PWRCABLEID	IQUANT	7	Power Cable ID
DCCALDATE	LABEL	5/31/2018	DC Calibration Date
ACCALDATE	LABEL	5/15/2017	AC Calibration Date
FRAMEWORKVERSION	QUANT	7,06	Framework Version
INSTRUMENTVERSION	LABEL	4.30	Instrument Version
CURVE	TABLE	57
	Pt	T	Vf	Im	Vu	Pwr	Sig	Ach	Temp	IERange	Over
	#	s	V	A	V	W	V	V	deg C	#	bits
	0	1	8,56274E-001	-9,41383E-001	0,00000E+000	-8,06082E-001	-5,63980E-001	7,15784E-002	1,32587E+003	12	..........a
	1	2	8,01956E-001	-9,01960E-001	0,00000E+000	-7,23333E-001	-5,40386E-001	6,68808E-002	1,32468E+003	12	..........a
	2	3	7,81557E-001	-8,91298E-001	0,00000E+000	-6,96600E-001	-5,33987E-001	6,75573E-002	1,32432E+003	12	.........va
	3	4	8,01514E-001	-8,73742E-001	0,00000E+000	-7,00317E-001	-5,23444E-001	6,86576E-002	1,32497E+003	12	...........
	4	5	7,98766E-001	-8,59859E-001	0,00000E+000	-6,86826E-001	-5,15129E-001	6,75267E-002	1,32426E+003	12	...........
	5	6	7,98341E-001	-8,46819E-001	0,00000E+000	-6,76051E-001	-5,07333E-001	6,64812E-002	1,32431E+003	12	...........
	6	7	8,00591E-001	-8,43641E-001	0,00000E+000	-6,75411E-001	-5,05426E-001	6,62316E-002	1,32554E+003	12	...........
	7	8	7,97618E-001	-8,46780E-001	0,00000E+000	-6,75407E-001	-5,07301E-001	6,64625E-002	1,32567E+003	12	...........
	8	9	8,01436E-001	-8,26859E-001	0,00000E+000	-6,62675E-001	-4,95379E-001	6,48677E-002	1,32558E+003	12	...........
	9	10	7,98301E-001	-8,48018E-001	0,00000E+000	-6,76974E-001	-5,08052E-001	6,65813E-002	1,32492E+003	12	...........
	10	11	8,00565E-001	-7,99730E-001	0,00000E+000	-6,40236E-001	-4,79128E-001	6,26673E-002	1,32465E+003	12	...........
	11	12	8,03435E-001	-8,32987E-001	0,00000E+000	-6,69251E-001	-4,99045E-001	6,53722E-002	1,32425E+003	12	...........
	12	13	7,99644E-001	-8,29429E-001	0,00000E+000	-6,63248E-001	-4,96924E-001	6,51106E-002	1,32423E+003	12	...........
	13	14	7,97708E-001	-8,17141E-001	0,00000E+000	-6,51840E-001	-4,89569E-001	6,40771E-002	1,32554E+003	12	...........
	14	15	8,00149E-001	-8,20759E-001	0,00000E+000	-6,56730E-001	-4,91730E-001	6,43854E-002	1,32567E+003	12	...........
	15	16	8,00264E-001	-8,33364E-001	0,00000E+000	-6,66911E-001	-4,99274E-001	6,54049E-002	1,32558E+003	12	...........
	16	17	8,02126E-001	-8,30718E-001	0,00000E+000	-6,66341E-001	-4,97697E-001	6,52003E-002	1,32542E+003	12	...........
	17	18	8,00192E-001	-8,29660E-001	0,00000E+000	-6,63887E-001	-4,97061E-001	6,51188E-002	1,32525E+003	12	...........
	18	19	7,99271E-001	-8,32293E-001	0,00000E+000	-6,65227E-001	-4,98642E-001	6,53329E-002	1,32427E+003	12	...........
	19	20	8,00542E-001	-8,19025E-001	0,00000E+000	-6,55664E-001	-4,90692E-001	6,42246E-002	1,32423E+003	12	...........
	20	21	7,98889E-001	-8,12101E-001	0,00000E+000	-6,48778E-001	-4,86546E-001	6,36629E-002	1,32423E+003	12	...........
	21	22	7,98870E-001	-8,22642E-001	0,00000E+000	-6,57184E-001	-4,92853E-001	6,45370E-002	1,32554E+003	12	...........
	22	23	8,01460E-001	-8,19990E-001	0,00000E+000	-6,57189E-001	-4,91266E-001	6,43090E-002	1,32558E+003	12	...........
	23	24	8,01191E-001	-8,18825E-001	0,00000E+000	-6,56036E-001	-4,90570E-001	6,42278E-002	1,32558E+003	12	...........
	24	25	7,98473E-001	-8,31536E-001	0,00000E+000	-6,63959E-001	-4,98187E-001	6,52513E-002	1,32558E+003	12	...........
	25	26	7,99237E-001	-8,12323E-001	0,00000E+000	-6,49239E-001	-4,86682E-001	6,37035E-002	1,32558E+003	12	...........
	26	27	8,01176E-001	-8,29964E-001	0,00000E+000	-6,64947E-001	-4,97245E-001	6,51045E-002	1,32428E+003	12	...........
	27	28	7,99687E-001	-8,52530E-001	0,00000E+000	-6,81758E-001	-5,10743E-001	6,69134E-002	1,32431E+003	12	...........
	28	29	8,01894E-001	-8,40424E-001	0,00000E+000	-6,73931E-001	-5,03491E-001	6,59504E-002	1,32424E+003	12	...........
	29	30	7,97664E-001	-8,31514E-001	0,00000E+000	-6,63269E-001	-4,98167E-001	6,52388E-002	1,32554E+003	12	...........
	30	31	8,02212E-001	-8,22134E-001	0,00000E+000	-6,59526E-001	-4,92558E-001	6,44935E-002	1,32558E+003	12	...........
	31	32	7,98453E-001	-8,38981E-001	0,00000E+000	-6,69887E-001	-5,02635E-001	6,58440E-002	1,32558E+003	12	...........
	32	33	8,01911E-001	-8,27881E-001	0,00000E+000	-6,63887E-001	-4,95989E-001	6,49533E-002	1,32558E+003	12	...........
	33	34	7,96984E-001	-8,48902E-001	0,00000E+000	-6,76562E-001	-5,08578E-001	6,66449E-002	1,32558E+003	12	...........
	34	35	8,00398E-001	-8,40567E-001	0,00000E+000	-6,72789E-001	-5,03589E-001	6,59580E-002	1,32460E+003	12	...........
	35	36	8,01840E-001	-8,27452E-001	0,00000E+000	-6,63484E-001	-4,95736E-001	6,49042E-002	1,32440E+003	12	...........
	36	37	8,00673E-001	-8,32837E-001	0,00000E+000	-6,66830E-001	-4,98963E-001	6,53382E-002	1,32424E+003	12	...........
	37	38	7,97782E-001	-8,43281E-001	0,00000E+000	-6,72754E-001	-5,05213E-001	6,61838E-002	1,32423E+003	12	...........
	38	39	7,98153E-001	-8,39552E-001	0,00000E+000	-6,70091E-001	-5,02976E-001	6,58555E-002	1,32554E+003	12	...........
	39	40	8,02923E-001	-8,29673E-001	0,00000E+000	-6,66164E-001	-4,97061E-001	6,50776E-002	1,32558E+003	12	...........
	40	41	7,98046E-001	-8,18200E-001	0,00000E+000	-6,52961E-001	-4,90195E-001	6,41688E-002	1,32558E+003	12	...........
	41	42	8,00048E-001	-8,26489E-001	0,00000E+000	-6,61231E-001	-4,95152E-001	6,48137E-002	1,32526E+003	12	...........
	42	43	8,00891E-001	-8,37157E-001	0,00000E+000	-6,70471E-001	-5,01542E-001	6,56903E-002	1,32507E+003	12	...........
	43	44	7,99637E-001	-8,42744E-001	0,00000E+000	-6,73890E-001	-5,04885E-001	6,61298E-002	1,32476E+003	12	...........
	44	45	7,99760E-001	-8,24549E-001	0,00000E+000	-6,59441E-001	-4,93993E-001	6,46599E-002	1,32450E+003	12	...........
	45	46	8,00776E-001	-8,37086E-001	0,00000E+000	-6,70319E-001	-5,01509E-001	6,56973E-002	1,32424E+003	12	...........
	46	47	7,99396E-001	-8,27075E-001	0,00000E+000	-6,61160E-001	-4,95513E-001	6,48693E-002	1,32423E+003	12	...........
	47	48	8,01168E-001	-8,17428E-001	0,00000E+000	-6,54897E-001	-4,89734E-001	6,40930E-002	1,32423E+003	12	...........
	48	49	8,00562E-001	-8,25295E-001	0,00000E+000	-6,60700E-001	-4,94442E-001	6,47270E-002	1,32554E+003	12	...........
	49	50	8,00935E-001	-8,26340E-001	0,00000E+000	-6,61844E-001	-4,95069E-001	6,48055E-002	1,32558E+003	12	...........
	50	51	7,99064E-001	-8,35189E-001	0,00000E+000	-6,67369E-001	-5,00374E-001	6,55198E-002	1,32550E+003	12	...........
	51	52	7,98047E-001	-8,20115E-001	0,00000E+000	-6,54491E-001	-4,91347E-001	6,43224E-002	1,32526E+003	12	...........
	52	53	8,00571E-001	-8,31235E-001	0,00000E+000	-6,65462E-001	-4,97998E-001	6,52148E-002	1,32500E+003	12	...........
	53	54	8,01104E-001	-8,37024E-001	0,00000E+000	-6,70543E-001	-5,01469E-001	6,56667E-002	1,32482E+003	12	...........
	54	55	7,98655E-001	-8,30128E-001	0,00000E+000	-6,62986E-001	-4,97344E-001	6,51091E-002	1,32425E+003	12	...........
	55	56	8,01797E-001	-8,37910E-001	0,00000E+000	-6,71834E-001	-5,01997E-001	6,57472E-002	1,32423E+003	12	...........
	56	57	7,99975E-001	-8,31398E-001	0,00000E+000	-6,65097E-001	-4,98105E-001	6,51900E-002	1,32415E+003	12	...........
