EXPLAIN
TAG	PWR800_POTENTIOSTATIC
TITLE	LABEL	PWRPOTSTAT_ps50_zn8_paa1_v08	Test &Identifier
DATE	LABEL	12.11.2018	Date
TIME	LABEL	18:49:49	Time
NOTES	NOTES	1	&Notes...
	
PSTAT	PSTAT	IFC5000-03531	Potentiostat
CAPACITY	QUANT	1,00000E+000	Capacity (A-hr)
CELLTYPE	SELECTOR	0	&Cell Type
WORKINGCONNECTION	SELECTOR	0	&Working Lead
MAXI	QUANT	5,00000E+000	Max Current (A)
VOLTAGE	QUANT	8,00000E-001	Voltage (V)
MAXTIME	VARIABLEANDUNITS	3,60000E+003	s	1,00000E+000	hour(s)	Max Time
SAMPLETIME	QUANT	1,00000E+000	Sa&mple Period (s)
STOPTHRESH	VARIABLEANDUNITS	5,00000E+000	s	5,00000E+000	second(s)	Stop At Threshold
STOPAT1	MULTIPARAM	2	5,00000E+000	Stop At &1	|Current| > Limit	A
STOPAT2	MULTIPARAM	0	0,00000E+000	Stop At &2	None	N/A
AESBHCSelector	TOGGLE	F	Save Both Half Cells
IRCOMP	TOGGLE	F	IR Measure
EOC	QUANT	0	Open Circuit (V)
SEQUENCER	TOGGLE	TRUE	Run as Sequence
PSTATMODEL	IQUANT	53	Pstat Model
PSTATSECTION	LABEL	IFC5000-03531	Pstat Section
PSTATSERIALNO	LABEL	03531	Pstat Serial Number
CTRLMODE	IQUANT	0	Control Mode
ELECTROMETER	IQUANT	0	RE=0 or CS=1
IESTAB	IQUANT	0	I/E Stability
CASPEED	IQUANT	4	Control Amp Speed
CONVENTION	IQUANT	1	Current Convention
ICHRANGE	IQUANT	2	Ich Range
ICHRANGEMODE	TOGGLE	T	Ich Auto Range
ICHOFFSETENABLE	TOGGLE	F	Ich Offset Enable
ICHOFFSET	QUANT	0	Ich Offset (V)
ICHFILTER	IQUANT	1	Ich Filter
VCHRANGE	IQUANT	2	Vch Range
VCHRANGEMODE	TOGGLE	T	Vch Auto Range
VCHOFFSETENABLE	TOGGLE	F	Vch Offset Enable
VCHOFFSET	QUANT	0	Vch Offset (V)
VCHFILTER	IQUANT	1	Vch Filter
IERANGELOWERLIMIT	IQUANT	9	I/E Range Lower Limit
IERANGEMODE	TOGGLE	F	I/E AutoRange
IERANGE	IQUANT	12	I/E Range
ACHSELECT	IQUANT	1	Ach Select
ACHRANGE	IQUANT	2	Ach Range
ACHOFFSETENABLE	TOGGLE	F	Ach Offset Enable
ACHOFFSET	QUANT	0	Ach Offset (V)
ACHFILTER	IQUANT	1	Ach Filter
SENSECABLEID	IQUANT	14	Sense Cable ID
PWRCABLEID	IQUANT	7	Power Cable ID
DCCALDATE	LABEL	5/31/2018	DC Calibration Date
ACCALDATE	LABEL	5/15/2017	AC Calibration Date
FRAMEWORKVERSION	QUANT	7,06	Framework Version
INSTRUMENTVERSION	LABEL	4.30	Instrument Version
CURVE	TABLE	55
	Pt	T	Vf	Im	Vu	Pwr	Sig	Ach	Temp	IERange	Over
	#	s	V	A	V	W	V	V	deg C	#	bits
	0	1	8,17359E-001	-1,97210E+000	0,00000E+000	-1,61192E+000	-1,19883E+000	1,60738E-001	1,32309E+003	12	..chih..iva
	1	2	8,35607E-001	-1,83980E+000	0,00000E+000	-1,53735E+000	-1,20795E+000	1,42937E-001	1,32293E+003	12	..chih..iva
	2	3	8,33776E-001	-1,79223E+000	0,00000E+000	-1,49432E+000	-1,13866E+000	1,40395E-001	1,32373E+003	12	..chih..iva
	3	4	7,20319E-001	-2,38323E+000	0,00000E+000	-1,71669E+000	-1,50457E+000	1,91427E-001	1,32313E+003	12	..chih..iva
	4	5	8,00495E-001	-2,20364E+000	0,00000E+000	-1,76401E+000	-1,31979E+000	1,80456E-001	1,32316E+003	12	...........
	5	6	7,99055E-001	-2,19692E+000	0,00000E+000	-1,75546E+000	-1,31578E+000	1,80735E-001	1,32338E+003	12	...........
	6	7	8,00951E-001	-2,22433E+000	0,00000E+000	-1,78158E+000	-1,33218E+000	1,83494E-001	1,32332E+003	12	...........
	7	8	7,99445E-001	-2,18951E+000	0,00000E+000	-1,75039E+000	-1,31134E+000	1,80945E-001	1,32341E+003	12	...........
	8	9	7,99574E-001	-2,15788E+000	0,00000E+000	-1,72538E+000	-1,29240E+000	1,78525E-001	1,32348E+003	12	...........
	9	10	8,01207E-001	-2,17714E+000	0,00000E+000	-1,74434E+000	-1,30393E+000	1,80271E-001	1,32347E+003	12	...........
	10	11	7,99636E-001	-2,18102E+000	0,00000E+000	-1,74403E+000	-1,30626E+000	1,80764E-001	1,32341E+003	12	...........
	11	12	7,99618E-001	-2,19874E+000	0,00000E+000	-1,75815E+000	-1,31686E+000	1,82350E-001	1,32347E+003	12	...........
	12	13	8,00809E-001	-2,16528E+000	0,00000E+000	-1,73398E+000	-1,29682E+000	1,79658E-001	1,32341E+003	12	...........
	13	14	7,98925E-001	-2,22729E+000	0,00000E+000	-1,77943E+000	-1,33396E+000	1,84904E-001	1,32347E+003	12	...........
	14	15	8,00170E-001	-2,10384E+000	0,00000E+000	-1,68343E+000	-1,26005E+000	1,74701E-001	1,32339E+003	12	...........
	15	16	7,99916E-001	-2,13147E+000	0,00000E+000	-1,70499E+000	-1,27658E+000	1,77011E-001	1,32341E+003	12	...........
	16	17	7,99889E-001	-2,13264E+000	0,00000E+000	-1,70588E+000	-1,27729E+000	1,77074E-001	1,32347E+003	12	...........
	17	18	8,00128E-001	-2,12580E+000	0,00000E+000	-1,70091E+000	-1,27320E+000	1,76551E-001	1,32341E+003	12	...........
	18	19	7,99801E-001	-2,09601E+000	0,00000E+000	-1,67639E+000	-1,25536E+000	1,74326E-001	1,32348E+003	12	...........
	19	20	8,00307E-001	-2,11620E+000	0,00000E+000	-1,69361E+000	-1,26745E+000	1,76012E-001	1,32347E+003	12	...........
	20	21	7,99885E-001	-2,11253E+000	0,00000E+000	-1,68978E+000	-1,26525E+000	1,75676E-001	1,32339E+003	12	...........
	21	22	8,00114E-001	-2,08530E+000	0,00000E+000	-1,66848E+000	-1,24895E+000	1,73483E-001	1,32341E+003	12	...........
	22	23	7,99665E-001	-2,07764E+000	0,00000E+000	-1,66142E+000	-1,24436E+000	1,72865E-001	1,32348E+003	12	...........
	23	24	8,00008E-001	-2,09305E+000	0,00000E+000	-1,67445E+000	-1,25358E+000	1,74089E-001	1,32348E+003	12	...........
	24	25	8,00315E-001	-2,10412E+000	0,00000E+000	-1,68396E+000	-1,26021E+000	1,75082E-001	1,32348E+003	12	...........
	25	26	8,00008E-001	-2,08753E+000	0,00000E+000	-1,67004E+000	-1,25028E+000	1,73924E-001	1,32348E+003	12	...........
	26	27	7,99913E-001	-2,08866E+000	0,00000E+000	-1,67074E+000	-1,25096E+000	1,74204E-001	1,32348E+003	12	...........
	27	28	8,00193E-001	-2,06578E+000	0,00000E+000	-1,65303E+000	-1,23727E+000	1,72505E-001	1,32348E+003	12	...........
	28	29	8,00065E-001	-2,08452E+000	0,00000E+000	-1,66775E+000	-1,24848E+000	1,74266E-001	1,32348E+003	12	...........
	29	30	7,99993E-001	-2,08593E+000	0,00000E+000	-1,66873E+000	-1,24932E+000	1,74426E-001	1,32348E+003	12	...........
	30	31	7,99454E-001	-2,12456E+000	0,00000E+000	-1,69849E+000	-1,27246E+000	1,77584E-001	1,32348E+003	12	...........
	31	32	8,00118E-001	-2,09070E+000	0,00000E+000	-1,67280E+000	-1,25218E+000	1,74675E-001	1,32348E+003	12	...........
	32	33	8,00109E-001	-2,11286E+000	0,00000E+000	-1,69052E+000	-1,26545E+000	1,76430E-001	1,32347E+003	12	...........
	33	34	8,00188E-001	-2,11446E+000	0,00000E+000	-1,69197E+000	-1,26640E+000	1,76577E-001	1,32341E+003	12	...........
	34	35	8,00538E-001	-2,08511E+000	0,00000E+000	-1,66921E+000	-1,24883E+000	1,74169E-001	1,32348E+003	12	...........
	35	36	8,00299E-001	-2,10364E+000	0,00000E+000	-1,68354E+000	-1,25993E+000	1,75743E-001	1,32349E+003	12	...........
	36	37	7,99141E-001	-2,15416E+000	0,00000E+000	-1,72147E+000	-1,29018E+000	1,79957E-001	1,32356E+003	12	...........
	37	38	8,00872E-001	-2,14751E+000	0,00000E+000	-1,71988E+000	-1,28620E+000	1,79349E-001	1,32349E+003	12	...........
	38	39	7,99115E-001	-2,13280E+000	0,00000E+000	-1,70436E+000	-1,27739E+000	1,78019E-001	1,32356E+003	12	...........
	39	40	8,00817E-001	-2,15471E+000	0,00000E+000	-1,72553E+000	-1,29051E+000	1,79770E-001	1,32349E+003	12	...........
	40	41	7,98856E-001	-2,14315E+000	0,00000E+000	-1,71207E+000	-1,28358E+000	1,78804E-001	1,32356E+003	12	...........
	41	42	8,00448E-001	-2,08713E+000	0,00000E+000	-1,67064E+000	-1,25004E+000	1,74256E-001	1,32348E+003	12	...........
	42	43	8,00124E-001	-2,16511E+000	0,00000E+000	-1,73236E+000	-1,29673E+000	1,80811E-001	1,32349E+003	12	...........
	43	44	7,99796E-001	-2,13953E+000	0,00000E+000	-1,71119E+000	-1,28142E+000	1,78894E-001	1,32356E+003	12	...........
	44	45	8,00152E-001	-2,15122E+000	0,00000E+000	-1,72130E+000	-1,28842E+000	1,80091E-001	1,32348E+003	12	...........
	45	46	8,00712E-001	-2,15204E+000	0,00000E+000	-1,72317E+000	-1,28891E+000	1,80310E-001	1,32348E+003	12	...........
	46	47	7,99930E-001	-2,19176E+000	0,00000E+000	-1,75325E+000	-1,31269E+000	1,83639E-001	1,32348E+003	12	...........
	47	48	7,99300E-001	-2,18634E+000	0,00000E+000	-1,74754E+000	-1,30944E+000	1,83039E-001	1,32348E+003	12	...........
	48	49	7,99534E-001	-2,20494E+000	0,00000E+000	-1,76292E+000	-1,32058E+000	1,84526E-001	1,32348E+003	12	...........
	49	50	8,00509E-001	-2,17561E+000	0,00000E+000	-1,74160E+000	-1,30302E+000	1,82104E-001	1,32348E+003	12	...........
	50	51	8,00413E-001	-2,17685E+000	0,00000E+000	-1,74238E+000	-1,30376E+000	1,82172E-001	1,32348E+003	12	...........
	51	52	8,00310E-001	-2,17010E+000	0,00000E+000	-1,73675E+000	-1,29971E+000	1,81546E-001	1,32348E+003	12	...........
	52	53	7,99149E-001	-2,16571E+000	0,00000E+000	-1,73073E+000	-1,29709E+000	1,81354E-001	1,32348E+003	12	...........
	53	54	8,00007E-001	-2,17792E+000	0,00000E+000	-1,74235E+000	-1,30440E+000	1,82453E-001	1,32348E+003	12	...........
	54	55	8,00061E-001	-2,20544E+000	0,00000E+000	-1,76449E+000	-1,32088E+000	1,84798E-001	1,32348E+003	12	...........
