EXPLAIN
TAG	PWR800_POTENTIOSTATIC
TITLE	LABEL	PWRPOTSTAT_ps50_zn16_paa1_v08	Test &Identifier
DATE	LABEL	12.11.2018	Date
TIME	LABEL	19:40:05	Time
NOTES	NOTES	1	&Notes...
	
PSTAT	PSTAT	IFC5000-03531	Potentiostat
CAPACITY	QUANT	1,00000E+000	Capacity (A-hr)
CELLTYPE	SELECTOR	0	&Cell Type
WORKINGCONNECTION	SELECTOR	0	&Working Lead
MAXI	QUANT	5,00000E+000	Max Current (A)
VOLTAGE	QUANT	8,00000E-001	Voltage (V)
MAXTIME	VARIABLEANDUNITS	3,60000E+003	s	1,00000E+000	hour(s)	Max Time
SAMPLETIME	QUANT	1,00000E+000	Sa&mple Period (s)
STOPTHRESH	VARIABLEANDUNITS	5,00000E+000	s	5,00000E+000	second(s)	Stop At Threshold
STOPAT1	MULTIPARAM	2	5,00000E+000	Stop At &1	|Current| > Limit	A
STOPAT2	MULTIPARAM	0	0,00000E+000	Stop At &2	None	N/A
AESBHCSelector	TOGGLE	F	Save Both Half Cells
IRCOMP	TOGGLE	F	IR Measure
EOC	QUANT	0	Open Circuit (V)
SEQUENCER	TOGGLE	TRUE	Run as Sequence
PSTATMODEL	IQUANT	53	Pstat Model
PSTATSECTION	LABEL	IFC5000-03531	Pstat Section
PSTATSERIALNO	LABEL	03531	Pstat Serial Number
CTRLMODE	IQUANT	0	Control Mode
ELECTROMETER	IQUANT	0	RE=0 or CS=1
IESTAB	IQUANT	0	I/E Stability
CASPEED	IQUANT	4	Control Amp Speed
CONVENTION	IQUANT	1	Current Convention
ICHRANGE	IQUANT	2	Ich Range
ICHRANGEMODE	TOGGLE	T	Ich Auto Range
ICHOFFSETENABLE	TOGGLE	F	Ich Offset Enable
ICHOFFSET	QUANT	0	Ich Offset (V)
ICHFILTER	IQUANT	1	Ich Filter
VCHRANGE	IQUANT	2	Vch Range
VCHRANGEMODE	TOGGLE	T	Vch Auto Range
VCHOFFSETENABLE	TOGGLE	F	Vch Offset Enable
VCHOFFSET	QUANT	0	Vch Offset (V)
VCHFILTER	IQUANT	1	Vch Filter
IERANGELOWERLIMIT	IQUANT	9	I/E Range Lower Limit
IERANGEMODE	TOGGLE	F	I/E AutoRange
IERANGE	IQUANT	12	I/E Range
ACHSELECT	IQUANT	1	Ach Select
ACHRANGE	IQUANT	2	Ach Range
ACHOFFSETENABLE	TOGGLE	F	Ach Offset Enable
ACHOFFSET	QUANT	0	Ach Offset (V)
ACHFILTER	IQUANT	1	Ach Filter
SENSECABLEID	IQUANT	14	Sense Cable ID
PWRCABLEID	IQUANT	7	Power Cable ID
DCCALDATE	LABEL	5/31/2018	DC Calibration Date
ACCALDATE	LABEL	5/15/2017	AC Calibration Date
FRAMEWORKVERSION	QUANT	7,06	Framework Version
INSTRUMENTVERSION	LABEL	4.30	Instrument Version
CURVE	TABLE	114
	Pt	T	Vf	Im	Vu	Pwr	Sig	Ach	Temp	IERange	Over
	#	s	V	A	V	W	V	V	deg C	#	bits
	0	1	8,14351E-001	-2,00421E+000	0,00000E+000	-1,63213E+000	-1,20041E+000	1,57552E-001	1,32569E+003	12	.........va
	1	2	7,99847E-001	-2,12489E+000	0,00000E+000	-1,69959E+000	-1,27270E+000	1,71485E-001	1,32520E+003	12	...........
	2	3	8,00978E-001	-2,08907E+000	0,00000E+000	-1,67330E+000	-1,25124E+000	1,68612E-001	1,32578E+003	12	...........
	3	4	7,98642E-001	-2,04982E+000	0,00000E+000	-1,63707E+000	-1,22774E+000	1,65440E-001	1,32583E+003	12	...........
	4	5	8,00754E-001	-2,00094E+000	0,00000E+000	-1,60226E+000	-1,19846E+000	1,61487E-001	1,32583E+003	12	...........
	5	6	7,98644E-001	-1,97496E+000	0,00000E+000	-1,57729E+000	-1,18292E+000	1,59380E-001	1,32576E+003	12	...........
	6	7	8,00521E-001	-1,92738E+000	0,00000E+000	-1,54291E+000	-1,15442E+000	1,55522E-001	1,32582E+003	12	...........
	7	8	7,99526E-001	-1,94175E+000	0,00000E+000	-1,55248E+000	-1,16305E+000	1,56672E-001	1,32583E+003	12	...........
	8	9	8,00191E-001	-1,90168E+000	0,00000E+000	-1,52171E+000	-1,13903E+000	1,53438E-001	1,32583E+003	12	...........
	9	10	8,00123E-001	-1,94229E+000	0,00000E+000	-1,55407E+000	-1,16335E+000	1,56727E-001	1,32591E+003	12	...........
	10	11	8,00239E-001	-1,91869E+000	0,00000E+000	-1,53541E+000	-1,14921E+000	1,54830E-001	1,32583E+003	12	...........
	11	12	8,00418E-001	-1,89526E+000	0,00000E+000	-1,51700E+000	-1,13520E+000	1,52932E-001	1,32583E+003	12	...........
	12	13	7,99791E-001	-1,90667E+000	0,00000E+000	-1,52494E+000	-1,14202E+000	1,53869E-001	1,32583E+003	12	...........
	13	14	8,01029E-001	-1,89775E+000	0,00000E+000	-1,52015E+000	-1,13668E+000	1,53152E-001	1,32583E+003	12	...........
	14	15	7,98428E-001	-1,89058E+000	0,00000E+000	-1,50949E+000	-1,13239E+000	1,52569E-001	1,32583E+003	12	...........
	15	16	8,01011E-001	-1,85940E+000	0,00000E+000	-1,48940E+000	-1,11372E+000	1,50039E-001	1,32583E+003	12	...........
	16	17	7,98419E-001	-1,89864E+000	0,00000E+000	-1,51591E+000	-1,13723E+000	1,53226E-001	1,32583E+003	12	...........
	17	18	8,00905E-001	-1,85268E+000	0,00000E+000	-1,48382E+000	-1,10968E+000	1,49496E-001	1,32583E+003	12	...........
	18	19	7,99273E-001	-1,88636E+000	0,00000E+000	-1,50772E+000	-1,12987E+000	1,52218E-001	1,32583E+003	12	...........
	19	20	8,00330E-001	-1,88645E+000	0,00000E+000	-1,50979E+000	-1,12992E+000	1,52245E-001	1,32583E+003	12	...........
	20	21	8,00062E-001	-1,90841E+000	0,00000E+000	-1,52685E+000	-1,14306E+000	1,54013E-001	1,32583E+003	12	...........
	21	22	8,00262E-001	-1,85148E+000	0,00000E+000	-1,48167E+000	-1,10898E+000	1,49419E-001	1,32583E+003	12	...........
	22	23	8,00401E-001	-1,82847E+000	0,00000E+000	-1,46351E+000	-1,09520E+000	1,47560E-001	1,32583E+003	12	...........
	23	24	7,99695E-001	-1,84996E+000	0,00000E+000	-1,47940E+000	-1,10806E+000	1,49318E-001	1,32591E+003	12	...........
	24	25	8,01185E-001	-1,82049E+000	0,00000E+000	-1,45855E+000	-1,09041E+000	1,46930E-001	1,32583E+003	12	...........
	25	26	7,98326E-001	-1,81110E+000	0,00000E+000	-1,44585E+000	-1,08481E+000	1,46182E-001	1,32583E+003	12	...........
	26	27	8,01099E-001	-1,79899E+000	0,00000E+000	-1,44117E+000	-1,07756E+000	1,45205E-001	1,32583E+003	12	...........
	27	28	7,98441E-001	-1,85276E+000	0,00000E+000	-1,47932E+000	-1,10974E+000	1,49568E-001	1,32583E+003	12	...........
	28	29	8,00741E-001	-1,76293E+000	0,00000E+000	-1,41165E+000	-1,05595E+000	1,42299E-001	1,32583E+003	12	...........
	29	30	7,99479E-001	-1,81042E+000	0,00000E+000	-1,44739E+000	-1,08440E+000	1,46137E-001	1,32583E+003	12	...........
	30	31	8,00121E-001	-1,75339E+000	0,00000E+000	-1,40292E+000	-1,05025E+000	1,41528E-001	1,32583E+003	12	...........
	31	32	8,00113E-001	-1,78357E+000	0,00000E+000	-1,42705E+000	-1,06830E+000	1,43969E-001	1,32583E+003	12	...........
	32	33	8,00209E-001	-1,79819E+000	0,00000E+000	-1,43892E+000	-1,07707E+000	1,45166E-001	1,32583E+003	12	...........
	33	34	8,00507E-001	-1,75370E+000	0,00000E+000	-1,40385E+000	-1,05043E+000	1,41563E-001	1,32591E+003	12	...........
	34	35	7,99768E-001	-1,75133E+000	0,00000E+000	-1,40065E+000	-1,04902E+000	1,41378E-001	1,32583E+003	12	...........
	35	36	8,01078E-001	-1,76552E+000	0,00000E+000	-1,41432E+000	-1,05752E+000	1,42530E-001	1,32591E+003	12	...........
	36	37	7,98467E-001	-1,72110E+000	0,00000E+000	-1,37424E+000	-1,03092E+000	1,38951E-001	1,32592E+003	12	...........
	37	38	8,01045E-001	-1,73653E+000	0,00000E+000	-1,39104E+000	-1,04015E+000	1,40202E-001	1,32592E+003	12	...........
	38	39	7,98355E-001	-1,77310E+000	0,00000E+000	-1,41556E+000	-1,06205E+000	1,43153E-001	1,32592E+003	12	...........
	39	40	8,00700E-001	-1,69675E+000	0,00000E+000	-1,35859E+000	-1,01635E+000	1,36977E-001	1,32592E+003	12	...........
	40	41	7,99496E-001	-1,72888E+000	0,00000E+000	-1,38224E+000	-1,03558E+000	1,39571E-001	1,32592E+003	12	...........
	41	42	8,00297E-001	-1,75378E+000	0,00000E+000	-1,40355E+000	-1,05048E+000	1,41596E-001	1,32592E+003	12	...........
	42	43	8,00039E-001	-1,70979E+000	0,00000E+000	-1,36790E+000	-1,02415E+000	1,38034E-001	1,32592E+003	12	...........
	43	44	8,00121E-001	-1,69965E+000	0,00000E+000	-1,35993E+000	-1,01809E+000	1,37232E-001	1,32592E+003	12	...........
	44	45	8,00537E-001	-1,66818E+000	0,00000E+000	-1,33544E+000	-9,99235E-001	1,34691E-001	1,32592E+003	12	...........
	45	46	7,99760E-001	-1,69609E+000	0,00000E+000	-1,35647E+000	-1,01597E+000	1,36962E-001	1,32583E+003	12	...........
	46	47	8,01169E-001	-1,70304E+000	0,00000E+000	-1,36442E+000	-1,02011E+000	1,37524E-001	1,32591E+003	12	...........
	47	48	7,98378E-001	-1,69261E+000	0,00000E+000	-1,35134E+000	-1,01388E+000	1,36699E-001	1,32592E+003	12	...........
	48	49	8,01032E-001	-1,66846E+000	0,00000E+000	-1,33649E+000	-9,99405E-001	1,34737E-001	1,32592E+003	12	...........
	49	50	7,98502E-001	-1,67373E+000	0,00000E+000	-1,33647E+000	-1,00256E+000	1,35173E-001	1,32592E+003	12	...........
	50	51	8,00755E-001	-1,65591E+000	0,00000E+000	-1,32598E+000	-9,91898E-001	1,33754E-001	1,32592E+003	12	...........
	51	52	7,99438E-001	-1,67049E+000	0,00000E+000	-1,33545E+000	-1,00063E+000	1,34935E-001	1,32592E+003	12	...........
	52	53	8,00165E-001	-1,65823E+000	0,00000E+000	-1,32686E+000	-9,93280E-001	1,33958E-001	1,32592E+003	12	...........
	53	54	8,00068E-001	-1,67242E+000	0,00000E+000	-1,33805E+000	-1,00178E+000	1,35107E-001	1,32592E+003	12	...........
	54	55	8,00238E-001	-1,62354E+000	0,00000E+000	-1,29921E+000	-9,72514E-001	1,31184E-001	1,32592E+003	12	...........
	55	56	8,00514E-001	-1,60129E+000	0,00000E+000	-1,28186E+000	-9,59189E-001	1,29385E-001	1,32592E+003	12	...........
	56	57	7,99766E-001	-1,64833E+000	0,00000E+000	-1,31828E+000	-9,87367E-001	1,33181E-001	1,32592E+003	12	...........
	57	58	8,01134E-001	-1,62725E+000	0,00000E+000	-1,30365E+000	-9,74738E-001	1,31478E-001	1,32592E+003	12	...........
	58	59	7,98336E-001	-1,66054E+000	0,00000E+000	-1,32567E+000	-9,94683E-001	1,34195E-001	1,32592E+003	12	...........
	59	60	8,01063E-001	-1,63287E+000	0,00000E+000	-1,30804E+000	-9,78104E-001	1,31966E-001	1,32592E+003	12	...........
	60	61	7,98547E-001	-1,65432E+000	0,00000E+000	-1,32105E+000	-9,90934E-001	1,33724E-001	1,32592E+003	12	...........
	61	62	8,00565E-001	-1,62326E+000	0,00000E+000	-1,29952E+000	-9,72340E-001	1,31206E-001	1,32599E+003	12	...........
	62	63	7,99497E-001	-1,64067E+000	0,00000E+000	-1,31171E+000	-9,82769E-001	1,32615E-001	1,32593E+003	12	...........
	63	64	8,00197E-001	-1,62180E+000	0,00000E+000	-1,29776E+000	-9,71471E-001	1,31117E-001	1,32592E+003	12	...........
	64	65	8,00027E-001	-1,62573E+000	0,00000E+000	-1,30063E+000	-9,73829E-001	1,31419E-001	1,32599E+003	12	...........
	65	66	8,00290E-001	-1,59635E+000	0,00000E+000	-1,27754E+000	-9,56235E-001	1,29071E-001	1,32593E+003	12	...........
	66	67	8,00617E-001	-1,62074E+000	0,00000E+000	-1,29760E+000	-9,70840E-001	1,31016E-001	1,32592E+003	12	...........
	67	68	7,99686E-001	-1,64024E+000	0,00000E+000	-1,31168E+000	-9,82516E-001	1,32593E-001	1,32592E+003	12	...........
	68	69	8,01107E-001	-1,62032E+000	0,00000E+000	-1,29805E+000	-9,70575E-001	1,30987E-001	1,32599E+003	12	...........
	69	70	7,98414E-001	-1,65478E+000	0,00000E+000	-1,32120E+000	-9,91219E-001	1,33783E-001	1,32593E+003	12	...........
	70	71	8,01045E-001	-1,62631E+000	0,00000E+000	-1,30275E+000	-9,74165E-001	1,31478E-001	1,32592E+003	12	...........
	71	72	7,98298E-001	-1,61948E+000	0,00000E+000	-1,29283E+000	-9,70074E-001	1,30942E-001	1,32592E+003	12	...........
	72	73	8,00965E-001	-1,64348E+000	0,00000E+000	-1,31637E+000	-9,84450E-001	1,32851E-001	1,32599E+003	12	...........
	73	74	7,99344E-001	-1,65860E+000	0,00000E+000	-1,32579E+000	-9,93501E-001	1,34076E-001	1,32593E+003	12	...........
	74	75	8,00247E-001	-1,65086E+000	0,00000E+000	-1,32109E+000	-9,88867E-001	1,33463E-001	1,32607E+003	12	...........
	75	76	8,00138E-001	-1,67272E+000	0,00000E+000	-1,33841E+000	-1,00197E+000	1,35223E-001	1,32601E+003	12	...........
	76	77	8,00090E-001	-1,65677E+000	0,00000E+000	-1,32556E+000	-9,92400E-001	1,33971E-001	1,32593E+003	12	...........
	77	78	8,00619E-001	-1,62254E+000	0,00000E+000	-1,29904E+000	-9,71922E-001	1,31205E-001	1,32592E+003	12	...........
	78	79	7,99773E-001	-1,62759E+000	0,00000E+000	-1,30170E+000	-9,74944E-001	1,31647E-001	1,32599E+003	12	...........
	79	80	8,01096E-001	-1,59479E+000	0,00000E+000	-1,27758E+000	-9,55308E-001	1,28993E-001	1,32593E+003	12	...........
	80	81	7,98344E-001	-1,62597E+000	0,00000E+000	-1,29809E+000	-9,73970E-001	1,31539E-001	1,32599E+003	12	...........
	81	82	8,01193E-001	-1,60212E+000	0,00000E+000	-1,28361E+000	-9,59691E-001	1,29593E-001	1,32593E+003	12	...........
	82	83	7,98433E-001	-1,67452E+000	0,00000E+000	-1,33699E+000	-1,00305E+000	1,35429E-001	1,32599E+003	12	...........
	83	84	8,00674E-001	-1,65004E+000	0,00000E+000	-1,32114E+000	-9,88373E-001	1,33459E-001	1,32600E+003	12	...........
	84	85	7,99227E-001	-1,65651E+000	0,00000E+000	-1,32392E+000	-9,92265E-001	1,33970E-001	1,32600E+003	12	...........
	85	86	8,00237E-001	-1,65620E+000	0,00000E+000	-1,32535E+000	-9,92077E-001	1,33958E-001	1,32593E+003	12	...........
	86	87	8,00232E-001	-1,66291E+000	0,00000E+000	-1,33071E+000	-9,96097E-001	1,34453E-001	1,32592E+003	12	...........
	87	88	8,00268E-001	-1,67390E+000	0,00000E+000	-1,33957E+000	-1,00267E+000	1,35348E-001	1,32592E+003	12	...........
	88	89	8,00663E-001	-1,60851E+000	0,00000E+000	-1,28787E+000	-9,63509E-001	1,30063E-001	1,32592E+003	12	...........
	89	90	7,99651E-001	-1,63764E+000	0,00000E+000	-1,30954E+000	-9,80952E-001	1,32400E-001	1,32592E+003	12	...........
	90	91	8,01084E-001	-1,66832E+000	0,00000E+000	-1,33647E+000	-9,99319E-001	1,34841E-001	1,32599E+003	12	...........
	91	92	7,98363E-001	-1,65947E+000	0,00000E+000	-1,32486E+000	-9,94030E-001	1,34126E-001	1,32600E+003	12	...........
	92	93	8,01162E-001	-1,63461E+000	0,00000E+000	-1,30958E+000	-9,79139E-001	1,32112E-001	1,32600E+003	12	...........
	93	94	7,98441E-001	-1,68731E+000	0,00000E+000	-1,34722E+000	-1,01069E+000	1,36342E-001	1,32600E+003	12	...........
	94	95	8,00762E-001	-1,64726E+000	0,00000E+000	-1,31906E+000	-9,86715E-001	1,33090E-001	1,32593E+003	12	...........
	95	96	7,99271E-001	-1,67698E+000	0,00000E+000	-1,34036E+000	-1,00449E+000	1,35475E-001	1,32599E+003	12	...........
	96	97	8,00170E-001	-1,68071E+000	0,00000E+000	-1,34486E+000	-1,00674E+000	1,35783E-001	1,32600E+003	12	...........
	97	98	8,00175E-001	-1,66097E+000	0,00000E+000	-1,32907E+000	-9,94924E-001	1,34184E-001	1,32600E+003	12	...........
	98	99	8,00400E-001	-1,68395E+000	0,00000E+000	-1,34783E+000	-1,00868E+000	1,36046E-001	1,32600E+003	12	...........
	99	100	8,00424E-001	-1,68140E+000	0,00000E+000	-1,34583E+000	-1,00715E+000	1,35835E-001	1,32600E+003	12	...........
	100	101	7,99698E-001	-1,68593E+000	0,00000E+000	-1,34824E+000	-1,00987E+000	1,36206E-001	1,32600E+003	12	...........
	101	102	8,01194E-001	-1,65107E+000	0,00000E+000	-1,32283E+000	-9,89001E-001	1,33378E-001	1,32600E+003	12	...........
	102	103	7,98389E-001	-1,69772E+000	0,00000E+000	-1,35544E+000	-1,01692E+000	1,37164E-001	1,32600E+003	12	...........
	103	104	8,01027E-001	-1,66629E+000	0,00000E+000	-1,33474E+000	-9,98113E-001	1,34641E-001	1,32593E+003	12	...........
	104	105	7,98438E-001	-1,69631E+000	0,00000E+000	-1,35440E+000	-1,01609E+000	1,37087E-001	1,32599E+003	12	...........
	105	106	8,00822E-001	-1,68109E+000	0,00000E+000	-1,34625E+000	-1,00696E+000	1,35869E-001	1,32607E+003	12	...........
	106	107	7,99215E-001	-1,68085E+000	0,00000E+000	-1,34336E+000	-1,00684E+000	1,35854E-001	1,32601E+003	12	...........
	107	108	8,00260E-001	-1,72315E+000	0,00000E+000	-1,37897E+000	-1,03215E+000	1,39289E-001	1,32600E+003	12	...........
	108	109	8,00314E-001	-1,70489E+000	0,00000E+000	-1,36445E+000	-1,02121E+000	1,37816E-001	1,32600E+003	12	...........
	109	110	8,00127E-001	-1,71752E+000	0,00000E+000	-1,37424E+000	-1,02878E+000	1,38856E-001	1,32600E+003	12	...........
	110	111	8,00619E-001	-1,70979E+000	0,00000E+000	-1,36889E+000	-1,02416E+000	1,38217E-001	1,32600E+003	12	...........
	111	112	7,99719E-001	-1,73321E+000	0,00000E+000	-1,38608E+000	-1,03816E+000	1,40116E-001	1,32600E+003	12	...........
	112	113	8,01056E-001	-1,69892E+000	0,00000E+000	-1,36093E+000	-1,01765E+000	1,37325E-001	1,32600E+003	12	...........
	113	114	7,98384E-001	-1,70827E+000	0,00000E+000	-1,36386E+000	-1,02326E+000	1,38082E-001	1,32600E+003	12	...........
